drift steamvr; 20211015-231506; x y z w i j k;  frequency = 10 duration = 6.0 sys.args = ['.\\drift.py']
5.768786743283271790e-02 -5.303512215614318848e-01 -1.675028562545776367e+00 1.723210023568813309e-01 2.040050665427466658e-01 -6.947329336068055472e-01 6.678562781081386346e-01
5.768747255206108093e-02 -5.303508639335632324e-01 -1.675028324127197266e+00 1.723209064255666889e-01 2.040051801126821496e-01 -6.947333095565370042e-01 6.678563094160551161e-01
5.768692493438720703e-02 -5.303503870964050293e-01 -1.675027847290039062e+00 1.723208523797320757e-01 2.040050711491301350e-01 -6.947333761207937775e-01 6.678561243444526285e-01
5.768670514225959778e-02 -5.303502082824707031e-01 -1.675027728080749512e+00 1.723208496774399079e-01 2.040050743482862972e-01 -6.947333437787525101e-01 6.678559564663192338e-01
5.768650397658348083e-02 -5.303500294685363770e-01 -1.675027608871459961e+00 1.723208023873199768e-01 2.040050438601694327e-01 -6.947334857936434682e-01 6.678559667997546745e-01
5.768634378910064697e-02 -5.303499102592468262e-01 -1.675027489662170410e+00 1.723207983338805316e-01 2.040050486589058409e-01 -6.947334480897465747e-01 6.678558311810794956e-01
5.768618360161781311e-02 -5.303497910499572754e-01 -1.675027370452880859e+00 1.723207537460402505e-01 2.040050149716305661e-01 -6.947335738055283594e-01 6.678559391331272410e-01
5.768603831529617310e-02 -5.303496718406677246e-01 -1.675027251243591309e+00 1.723207483414527508e-01 2.040049348965475018e-01 -6.947336226177656116e-01 6.678558141555847039e-01
5.768588930368423462e-02 -5.303495526313781738e-01 -1.675027132034301758e+00 1.723207037535995356e-01 2.040049876826718067e-01 -6.947337483336811781e-01 6.678558356342859659e-01
5.768574774265289307e-02 -5.303494334220886230e-01 -1.675027012825012207e+00 1.723207010513050363e-01 2.040049908818321878e-01 -6.947336997778600365e-01 6.678557866569715395e-01
5.768553167581558228e-02 -5.303492546081542969e-01 -1.675026774406433105e+00 1.723206537611443045e-01 2.040049603937144074e-01 -6.947338471977263508e-01 6.678557969905274394e-01
5.768531560897827148e-02 -5.303490161895751953e-01 -1.675026655197143555e+00 1.723206483565536962e-01 2.040049667920381393e-01 -6.947338257503339332e-01 6.678556395853757488e-01
5.768514052033424377e-02 -5.303488969802856445e-01 -1.675026535987854004e+00 1.723206024175265583e-01 2.040050211778142719e-01 -6.947339569138164528e-01 6.678556608961396801e-01
5.768493935465812683e-02 -5.303487181663513184e-01 -1.675026416778564453e+00 1.723205983640824224e-01 2.040049395030849033e-01 -6.947339246144980107e-01 6.678555036589490790e-01
5.768422782421112061e-02 -5.303485393524169922e-01 -1.675025939941406250e+00 1.723194188077814548e-01 2.039988991823940834e-01 -6.947363670073475328e-01 6.678550111080483465e-01
5.768393352627754211e-02 -5.303483605384826660e-01 -1.675025701522827148e+00 1.723192836919967275e-01 2.039986267675278353e-01 -6.947367171842715461e-01 6.678550375477882994e-01
5.768375098705291748e-02 -5.303481817245483398e-01 -1.675025582313537598e+00 1.723192134317468038e-01 2.039983640478381655e-01 -6.947368977633598952e-01 6.678550234087115012e-01
5.768359452486038208e-02 -5.303480625152587891e-01 -1.675025463104248047e+00 1.723191742481334499e-01 2.039981510124013464e-01 -6.947369800744898072e-01 6.678549374680705641e-01
5.768344178795814514e-02 -5.303479433059692383e-01 -1.675025343894958496e+00 1.723191296598729216e-01 2.039979443750944699e-01 -6.947370787708729845e-01 6.678548670694680611e-01
5.768328905105590820e-02 -5.303478837013244629e-01 -1.675025224685668945e+00 1.723190891250806211e-01 2.039977329390343930e-01 -6.947370746507455230e-01 6.678546998912622268e-01
5.768314003944396973e-02 -5.303477644920349121e-01 -1.675025105476379395e+00 1.723190431856378158e-01 2.039976143753526039e-01 -6.947371625808284046e-01 6.678547157989385141e-01
5.768292024731636047e-02 -5.303475856781005859e-01 -1.675024986267089844e+00 1.723189499555544679e-01 2.039972923730923038e-01 -6.947374357676988632e-01 6.678546609721917049e-01
5.768278613686561584e-02 -5.303474664688110352e-01 -1.675024867057800293e+00 1.723188986114290722e-01 2.039971802074506957e-01 -6.947375184647618385e-01 6.678546816128093644e-01
5.768265202641487122e-02 -5.303474068641662598e-01 -1.675024747848510742e+00 1.723188445649647405e-01 2.039969847665089597e-01 -6.947376985312458952e-01 6.678546262525152377e-01
5.768251791596412659e-02 -5.303472876548767090e-01 -1.675024628639221191e+00 1.723187891673212124e-01 2.039968773994003948e-01 -6.947377921663605571e-01 6.678546626033251554e-01
5.768232420086860657e-02 -5.303471088409423828e-01 -1.675024509429931641e+00 1.723187256626835528e-01 2.039966066807259448e-01 -6.947379725330362632e-01 6.678545466162548738e-01
5.768214911222457886e-02 -5.303469896316528320e-01 -1.675024390220642090e+00 1.723186945859374319e-01 2.039963840471172296e-01 -6.947379735182827032e-01 6.678543643997051360e-01
5.768199637532234192e-02 -5.303468704223632812e-01 -1.675024271011352539e+00 1.723186108138113071e-01 2.039962237958673208e-01 -6.947382355976999824e-01 6.678544512701057867e-01
5.768184363842010498e-02 -5.303467512130737305e-01 -1.675024151802062988e+00 1.723185675765689928e-01 2.039960155580092249e-01 -6.947382369686668779e-01 6.678543756350113769e-01
5.768169462680816650e-02 -5.303466916084289551e-01 -1.675024032592773438e+00 1.723185216369871597e-01 2.039958105191567728e-01 -6.947383357092011824e-01 6.678543104733271063e-01
5.768154188990592957e-02 -5.303465723991394043e-01 -1.675023913383483887e+00 1.723184783997224467e-01 2.039956022811137415e-01 -6.947384235548244025e-01 6.678542348382450200e-01
5.768131837248802185e-02 -5.303463935852050781e-01 -1.675023794174194336e+00 1.723183905739951449e-01 2.039953603534674642e-01 -6.947386857637704027e-01 6.678541644700636271e-01
5.768114328384399414e-02 -5.303462743759155273e-01 -1.675023674964904785e+00 1.723183162598832252e-01 2.039951024301561167e-01 -6.947388610699705147e-01 6.678541552327840192e-01
5.768096446990966797e-02 -5.303460955619812012e-01 -1.675023436546325684e+00 1.723182865342294812e-01 2.039948781962888091e-01 -6.947388728221494114e-01 6.678539731839668869e-01
5.768081545829772949e-02 -5.303460359573364258e-01 -1.675023436546325684e+00 1.723181987084043965e-01 2.039947227428004772e-01 -6.947391296273429662e-01 6.678541514306594040e-01
5.768068134784698486e-02 -5.303459167480468750e-01 -1.675023317337036133e+00 1.723181865479020136e-01 2.039944777146573962e-01 -6.947390543477532932e-01 6.678539337324297387e-01
5.768053978681564331e-02 -5.303457975387573242e-01 -1.675023198127746582e+00 1.723181392570512227e-01 2.039943607493160393e-01 -6.947391369179896081e-01 6.678538629982613273e-01
5.768039822578430176e-02 -5.303456783294677734e-01 -1.675023078918457031e+00 1.723180879126842702e-01 2.039941621078229517e-01 -6.947392358309353311e-01 6.678538079742804001e-01
5.768019333481788635e-02 -5.303455591201782227e-01 -1.675022959709167480e+00 1.723179919797470927e-01 2.039939297763921078e-01 -6.947394874895730377e-01 6.678539149530760000e-01
5.768002942204475403e-02 -5.303454399108886719e-01 -1.675022840499877930e+00 1.723179514446871730e-01 2.039937183383085662e-01 -6.947395860598943873e-01 6.678537585839302571e-01
5.769074708223342896e-02 -5.303416848182678223e-01 -1.675056457519531250e+00 1.723016771988863383e-01 2.039938732253105680e-01 -6.947507483879873380e-01 6.678465172703816899e-01
5.769060924649238586e-02 -5.303415060043334961e-01 -1.675056338310241699e+00 1.723015677438396454e-01 2.039939163299545055e-01 -6.947508383930200981e-01 6.678463145197777173e-01
5.769045650959014893e-02 -5.303413867950439453e-01 -1.675056338310241699e+00 1.723014461270395148e-01 2.039939738333961528e-01 -6.947509450054222269e-01 6.678461805290473174e-01
5.769031867384910583e-02 -5.303412675857543945e-01 -1.675056219100952148e+00 1.723013366718460226e-01 2.039941034214789173e-01 -6.947510404164890518e-01 6.678459885889195258e-01
5.771348252892494202e-02 -5.303616523742675781e-01 -1.675034403800964355e+00 1.722500675122387581e-01 2.040235047794477785e-01 -6.947222271957912421e-01 6.678804073135210517e-01
5.771339684724807739e-02 -5.303615331649780273e-01 -1.675034284591674805e+00 1.722499512658859921e-01 2.040235559598809201e-01 -6.947223229732780725e-01 6.678801984153912574e-01
5.771331116557121277e-02 -5.303614735603332520e-01 -1.675034284591674805e+00 1.722498350194547889e-01 2.040236071404760432e-01 -6.947224241580232107e-01 6.678800760262849634e-01
5.771322548389434814e-02 -5.303613543510437012e-01 -1.675034165382385254e+00 1.722497241797612821e-01 2.040237384261091025e-01 -6.947225143499274891e-01 6.678798677911713666e-01
5.771314352750778198e-02 -5.303612947463989258e-01 -1.675034165382385254e+00 1.722496133399964158e-01 2.040237832028830578e-01 -6.947226045422356666e-01 6.678797514719986284e-01
5.771304666996002197e-02 -5.303611755371093750e-01 -1.675034046173095703e+00 1.722494376182718556e-01 2.040239913394757409e-01 -6.947229077575134415e-01 6.678797028938089353e-01
5.771288275718688965e-02 -5.303609967231750488e-01 -1.675033926963806152e+00 1.722492159383020305e-01 2.040241674033892172e-01 -6.947230935516592876e-01 6.678793891539407390e-01
5.771279335021972656e-02 -5.303608775138854980e-01 -1.675033807754516602e+00 1.722490929328298614e-01 2.040241400811359240e-01 -6.947232057777327219e-01 6.678791740209069072e-01
5.771269649267196655e-02 -5.303608179092407227e-01 -1.675033807754516602e+00 1.722489618170100767e-01 2.040242953842048290e-01 -6.947233344945150657e-01 6.678790444030668905e-01
5.771261081099510193e-02 -5.303606986999511719e-01 -1.675033688545227051e+00 1.722488009634453310e-01 2.040243994016140150e-01 -6.947236101856487656e-01 6.678789976493356706e-01
5.771252512931823730e-02 -5.303606390953063965e-01 -1.675033688545227051e+00 1.722486874196621220e-01 2.040245338914758733e-01 -6.947237004714567066e-01 6.678788755930230581e-01
5.771244317293167114e-02 -5.303605198860168457e-01 -1.675033569335937500e+00 1.722485752275171034e-01 2.040245802708952061e-01 -6.947238015264278754e-01 6.678786888203175343e-01
5.771230533719062805e-02 -5.303604006767272949e-01 -1.675033450126647949e+00 1.722483886910178841e-01 2.040246281999854860e-01 -6.947240131922012285e-01 6.678783956106574271e-01
5.771221965551376343e-02 -5.303602814674377441e-01 -1.675033450126647949e+00 1.722482737952475140e-01 2.040247642917227822e-01 -6.947241143382841821e-01 6.678782842027344291e-01
5.771213769912719727e-02 -5.303602218627929688e-01 -1.675033330917358398e+00 1.722481224030566194e-01 2.040249436130160132e-01 -6.947243734983711283e-01 6.678783359340491055e-01
5.771205574274063110e-02 -5.303601026535034180e-01 -1.675033330917358398e+00 1.722480075071086414e-01 2.040249931954653817e-01 -6.947244746455671915e-01 6.678781380166837200e-01
