repeatability steamvr; 20211015-225453; x y z w i j k;  frequency = 150 duration = 2 sys.args = ['.\\repeatability.py']
3.431684970855712891e-01 -4.989593327045440674e-01 -1.831502437591552734e+00 5.976521798264839980e-01 6.266918351308392587e-01 -3.733625789285156538e-01 3.326703050934448624e-01
3.431685864925384521e-01 -4.989591836929321289e-01 -1.831502556800842285e+00 5.976520333460800805e-01 6.266918640645099403e-01 -3.733628013345148267e-01 3.326703087135311487e-01
3.431686162948608398e-01 -4.989591240882873535e-01 -1.831502556800842285e+00 5.976519941937319391e-01 6.266918552535892806e-01 -3.733628413766402754e-01 3.326703149238308677e-01
3.431686460971832275e-01 -4.989590942859649658e-01 -1.831502556800842285e+00 5.976519647807722047e-01 6.266918611628831126e-01 -3.733628963715012739e-01 3.326703219461170646e-01
3.431686758995056152e-01 -4.989590644836425781e-01 -1.831502556800842285e+00 5.976519370235076067e-01 6.266918653360321612e-01 -3.733629503320278209e-01 3.326703062305595981e-01
3.431687057018280029e-01 -4.989590346813201904e-01 -1.831502556800842285e+00 5.976519077079389675e-01 6.266918711432037936e-01 -3.733629803332145780e-01 3.326703163152406884e-01
3.431687355041503906e-01 -4.989589750766754150e-01 -1.831502676010131836e+00 5.976518330067992490e-01 6.266918497427043100e-01 -3.733630792033981183e-01 3.326703080303659021e-01
3.431688249111175537e-01 -4.989588558673858643e-01 -1.831502676010131836e+00 5.976517205167992675e-01 6.266918679672338621e-01 -3.733632437551347993e-01 3.326703238964721643e-01
3.431689143180847168e-01 -4.989587366580963135e-01 -1.831502676010131836e+00 5.976516128964763919e-01 6.266918810854723576e-01 -3.733634037064575417e-01 3.326703183523384566e-01
3.431689739227294922e-01 -4.989586472511291504e-01 -1.831502795219421387e+00 5.976515364422081422e-01 6.266919113889948267e-01 -3.733635293839634994e-01 3.326703328595535525e-01
3.431690037250518799e-01 -4.989586174488067627e-01 -1.831502795219421387e+00 5.976514958289177448e-01 6.266918791771404207e-01 -3.733635703388467064e-01 3.326703149502031054e-01
3.431690335273742676e-01 -4.989585876464843750e-01 -1.831502795219421387e+00 5.976514663185394927e-01 6.266918851885925346e-01 -3.733636261738004225e-01 3.326703220267211436e-01
3.431690633296966553e-01 -4.989585578441619873e-01 -1.831502795219421387e+00 5.976514369055537790e-01 6.266918910979204504e-01 -3.733636819479168034e-01 3.326703290490283238e-01
3.431690931320190430e-01 -4.989584684371948242e-01 -1.831502795219421387e+00 5.976513622043551077e-01 6.266918946303341453e-01 -3.733637800391506611e-01 3.326703238807895979e-01
3.431691229343414307e-01 -4.989584386348724365e-01 -1.831502795219421387e+00 5.976513294799679077e-01 6.266919040119698359e-01 -3.733638152865672577e-01 3.326703265131049081e-01
3.431691527366638184e-01 -4.989584088325500488e-01 -1.831502914428710938e+00 5.976512920806660301e-01 6.266919182956810497e-01 -3.733638768290579724e-01 3.326703348642244262e-01
3.431691825389862061e-01 -4.989583790302276611e-01 -1.831502914428710938e+00 5.976512643233701239e-01 6.266919224688702883e-01 -3.733639307897103632e-01 3.326703191486673483e-01
3.431692123413085938e-01 -4.989583492279052734e-01 -1.831502914428710938e+00 5.976512366634669782e-01 6.266919265399347738e-01 -3.733639589775014089e-01 3.326703314283769863e-01
3.431692123413085938e-01 -4.989583194255828857e-01 -1.831502914428710938e+00 5.976512089061685185e-01 6.266919307131274541e-01 -3.733640121590119376e-01 3.326703157128196864e-01
3.431692421436309814e-01 -4.989582598209381104e-01 -1.831502914428710938e+00 5.976511682928559166e-01 6.266918985012799315e-01 -3.733640531139642560e-01 3.326703227363444482e-01
3.431692719459533691e-01 -4.989582300186157227e-01 -1.831502914428710938e+00 5.976511404381602555e-01 6.266919027766016947e-01 -3.733641063563311047e-01 3.326703320078741588e-01
3.431693017482757568e-01 -4.989581704139709473e-01 -1.831502914428710938e+00 5.976510867740401078e-01 6.266919091825920995e-01 -3.733641850721771682e-01 3.326703307128194842e-01
3.431693315505981445e-01 -4.989581406116485596e-01 -1.831502914428710938e+00 5.976510527835150466e-01 6.266919198918945444e-01 -3.733642179940032113e-01 3.326703433997358350e-01
3.431693613529205322e-01 -4.989581108093261719e-01 -1.831503033638000488e+00 5.976510250262080381e-01 6.266919240650972167e-01 -3.733642711755474908e-01 3.326703276841790347e-01
3.431693911552429199e-01 -4.989580810070037842e-01 -1.831503033638000488e+00 5.976509973662937902e-01 6.266919281361749139e-01 -3.733642993633725093e-01 3.326703368472900824e-01
3.431693911552429199e-01 -4.989580512046813965e-01 -1.831503033638000488e+00 5.976509696089842283e-01 6.266919323093810279e-01 -3.733643525449270584e-01 3.326703242483431966e-01
3.431694209575653076e-01 -4.989580214023590088e-01 -1.831503033638000488e+00 5.976509419490674269e-01 6.266919363804621668e-01 -3.733643807327600705e-01 3.326703334114562982e-01
3.431694507598876953e-01 -4.989579916000366211e-01 -1.831503033638000488e+00 5.976509107829625078e-01 6.266919441281044723e-01 -3.733644391604763468e-01 3.326703414096087164e-01
3.431694805622100830e-01 -4.989579617977142334e-01 -1.831503033638000488e+00 5.976508831230430419e-01 6.266919481991893859e-01 -3.733644915020508659e-01 3.326703287564499734e-01
3.431694805622100830e-01 -4.989579319953918457e-01 -1.831503033638000488e+00 5.976508570214276173e-01 6.266919257033626289e-01 -3.733645187163921464e-01 3.326703370521674752e-01
3.431695103645324707e-01 -4.989579021930694580e-01 -1.831503033638000488e+00 5.976508231282836592e-01 6.266919363105569740e-01 -3.733645757311493951e-01 3.326703278686066190e-01
3.431695401668548584e-01 -4.989578723907470703e-01 -1.831503033638000488e+00 5.976507953709659926e-01 6.266919404837731911e-01 -3.733646039798479421e-01 3.326703370859384057e-01
3.431695699691772461e-01 -4.989578425884246826e-01 -1.831503033638000488e+00 5.976507676136469938e-01 6.266919446569910734e-01 -3.733646571614405163e-01 3.326703463032718022e-01
3.431695997714996338e-01 -4.989577829837799072e-01 -1.831503152847290039e+00 5.976507138520993356e-01 6.266919511651510843e-01 -3.733647367174030007e-01 3.326703450624486913e-01
3.431696295738220215e-01 -4.989577531814575195e-01 -1.831503152847290039e+00 5.976506861921706548e-01 6.266919552362473222e-01 -3.733647649052732609e-01 3.326703324092910585e-01
3.431696295738220215e-01 -4.989577233791351318e-01 -1.831503152847290039e+00 5.976506585322407528e-01 6.266919593073453365e-01 -3.733648180260420446e-01 3.326703415724162061e-01
3.431696593761444092e-01 -4.989576935768127441e-01 -1.831503152847290039e+00 5.976506291192154041e-01 6.266919652167263211e-01 -3.733648480882678644e-01 3.326703517113679398e-01
3.431696891784667969e-01 -4.989576637744903564e-01 -1.831503152847290039e+00 5.976506030175888773e-01 6.266919676537997530e-01 -3.733648994563876222e-01 3.326703381908109325e-01
3.431696891784667969e-01 -4.989576339721679688e-01 -1.831503152847290039e+00 5.976505753576552005e-01 6.266919717249028743e-01 -3.733649276442737586e-01 3.326703473539396883e-01
3.431697189807891846e-01 -4.989576041698455811e-01 -1.831503152847290039e+00 5.976505379583061384e-01 6.266919860086858085e-01 -3.733649899660944071e-01 3.326703307721971536e-01
3.431697487831115723e-01 -4.989575743675231934e-01 -1.831503152847290039e+00 5.976504955918531259e-01 6.266919556351362441e-01 -3.733650327955365666e-01 3.326703356549690627e-01
3.431697785854339600e-01 -4.989575445652008057e-01 -1.831503272056579590e+00 5.976504678345202493e-01 6.266919598083715570e-01 -3.733650859771844299e-01 3.326703448723147272e-01
3.431698679924011230e-01 -4.989574253559112549e-01 -1.831503272056579590e+00 5.976503587530592743e-01 6.266919744587932106e-01 -3.733652468419790815e-01 3.326703401414869976e-01
3.431697487831115723e-01 -4.989577829837799072e-01 -1.831503391265869141e+00 5.976559929792624182e-01 6.266867895519143694e-01 -3.733598002227552226e-01 3.326761236532567723e-01
3.431697785854339600e-01 -4.989577531814575195e-01 -1.831503391265869141e+00 5.976560359296851921e-01 6.266867195825319703e-01 -3.733597796245010092e-01 3.326761994762417185e-01
3.431697785854339600e-01 -4.989577233791351318e-01 -1.831503391265869141e+00 5.976560826784410585e-01 6.266866206976572373e-01 -3.733597496410924754e-01 3.326762981175995781e-01
3.431698083877563477e-01 -4.989577233791351318e-01 -1.831503391265869141e+00 5.976561292324068519e-01 6.266865718823835252e-01 -3.733597236751045045e-01 3.326763594683686542e-01
3.431698381900787354e-01 -4.989576935768127441e-01 -1.831503391265869141e+00 5.976561697479891855e-01 6.266865044661421580e-01 -3.733596781069644099e-01 3.326764428798034690e-01
3.431698381900787354e-01 -4.989576637744903564e-01 -1.831503391265869141e+00 5.976562082183112246e-01 6.266864391945156099e-01 -3.733596595283268926e-01 3.326765211965250768e-01
3.431698679924011230e-01 -4.989576339721679688e-01 -1.831503391265869141e+00 5.976562512661117710e-01 6.266863691230758482e-01 -3.733596357526749454e-01 3.326765844989193477e-01
3.431698977947235107e-01 -4.989576041698455811e-01 -1.831503391265869141e+00 5.976562917816857778e-01 6.266863266395308329e-01 -3.733596151172154376e-01 3.326766647937439703e-01
3.431698977947235107e-01 -4.989575743675231934e-01 -1.831503510475158691e+00 5.976563304467863436e-01 6.266862611636895286e-01 -3.733595964169064141e-01 3.326767211859384954e-01
3.431699275970458984e-01 -4.989575743675231934e-01 -1.831503510475158691e+00 5.976563668718410938e-01 6.266861980367077756e-01 -3.733595798951156453e-01 3.326768006410896761e-01
3.431699573993682861e-01 -4.989575445652008057e-01 -1.831503510475158691e+00 5.976564198537348549e-01 6.266861175486863056e-01 -3.733595467970062254e-01 3.326768926961770068e-01
3.431699573993682861e-01 -4.989575147628784180e-01 -1.831503510475158691e+00 5.976564663102812425e-01 6.266860688356307163e-01 -3.733594951801089135e-01 3.326769541010922704e-01
3.431699872016906738e-01 -4.989574849605560303e-01 -1.831503510475158691e+00 5.976565032222934670e-01 6.266860051980649438e-01 -3.733594783541229201e-01 3.326770364017346271e-01
3.431699872016906738e-01 -4.989574551582336426e-01 -1.831503510475158691e+00 5.976565393551580563e-01 6.266859423774994164e-01 -3.733594620148770193e-01 3.326770879702561912e-01
3.431700170040130615e-01 -4.989574253559112549e-01 -1.831503510475158691e+00 5.976565742219095423e-01 6.266858808845521267e-01 -3.733594472457263391e-01 3.326771651761838977e-01
3.431700468063354492e-01 -4.989574253559112549e-01 -1.831503510475158691e+00 5.976566167827178644e-01 6.266858113238417127e-01 -3.733594268909118385e-01 3.326772162832471458e-01
3.431700468063354492e-01 -4.989573955535888672e-01 -1.831503629684448242e+00 5.976566532077550731e-01 6.266857731295810696e-01 -3.733593854365052089e-01 3.326772926217592685e-01
3.431700766086578369e-01 -4.989573657512664795e-01 -1.831503629684448242e+00 5.976566860292439332e-01 6.266857137812592571e-01 -3.733593719450484794e-01 3.326773678495471565e-01
3.431700766086578369e-01 -4.989573359489440918e-01 -1.831503629684448242e+00 5.976567205064142740e-01 6.266856526968440644e-01 -3.733593574192801134e-01 3.326774203396524188e-01
3.431701064109802246e-01 -4.989573359489440918e-01 -1.831503629684448242e+00 5.976567613141359203e-01 6.266856099070433617e-01 -3.733593389387845352e-01 3.326774942385771761e-01
3.431701064109802246e-01 -4.989573061466217041e-01 -1.831503629684448242e+00 5.976567954017294459e-01 6.266855492311407261e-01 -3.733593005028964518e-01 3.326775438289412690e-01
3.431701362133026123e-01 -4.989572763442993164e-01 -1.831503629684448242e+00 5.976568320215420727e-01 6.266855108326716550e-01 -3.733592838594703145e-01 3.326776231755712021e-01
3.431701362133026123e-01 -4.989572465419769287e-01 -1.831503629684448242e+00 5.976568708813938535e-01 6.266854451527319458e-01 -3.733592642583927201e-01 3.326776794592470332e-01
3.431701660156250000e-01 -4.989572465419769287e-01 -1.831503629684448242e+00 5.976569112995329114e-01 6.266853778388267182e-01 -3.733592436838478190e-01 3.326777598081501197e-01
3.431701958179473877e-01 -4.989572167396545410e-01 -1.831503748893737793e+00 5.976569500619864916e-01 6.266853122610331894e-01 -3.733591999901326730e-01 3.326778161460250405e-01
3.431701958179473877e-01 -4.989571869373321533e-01 -1.831503748893737793e+00 5.976569882400790679e-01 6.266852722286228028e-01 -3.733591823732521076e-01 3.326778946252216818e-01
3.431702256202697754e-01 -4.989571571350097656e-01 -1.831503748893737793e+00 5.976570290477823955e-01 6.266852045062570875e-01 -3.733591631136434774e-01 3.326779435914618555e-01
3.431702554225921631e-01 -4.989571273326873779e-01 -1.831503748893737793e+00 5.976570738485991185e-01 6.266851325968427755e-01 -3.733591359055088432e-01 3.326780402002359471e-01
3.431702554225921631e-01 -4.989570975303649902e-01 -1.831503748893737793e+00 5.976571183572332302e-01 6.266850609938129368e-01 -3.733591112173396676e-01 3.326781276219006322e-01
3.431702852249145508e-01 -4.989570975303649902e-01 -1.831503748893737793e+00 5.976571551718121711e-01 6.266850223911685225e-01 -3.733590944522627852e-01 3.326781819274136076e-01
3.431702852249145508e-01 -4.989570677280426025e-01 -1.831503748893737793e+00 5.976571938368568926e-01 6.266849569155646948e-01 -3.733590508194268853e-01 3.326782632520820515e-01
3.431703150272369385e-01 -4.989570379257202148e-01 -1.831503748893737793e+00 5.976572387350542748e-01 6.266848849040783653e-01 -3.733590274461959790e-01 3.326783379905567939e-01
3.431703448295593262e-01 -4.989570081233978271e-01 -1.831503868103027344e+00 5.976572773027005736e-01 6.266848195306216063e-01 -3.733590088068347024e-01 3.326783944368004176e-01
3.431703448295593262e-01 -4.989569783210754395e-01 -1.831503868103027344e+00 5.976573138250905748e-01 6.266847563017650113e-01 -3.733589922243001902e-01 3.326784738375432871e-01
3.431703746318817139e-01 -4.989569783210754395e-01 -1.831503868103027344e+00 5.976573499579062032e-01 6.266847184140276195e-01 -3.733589766642806951e-01 3.326785254059352326e-01
3.431703746318817139e-01 -4.989569485187530518e-01 -1.831503868103027344e+00 5.976573886229383792e-01 6.266846529384779707e-01 -3.733589330314744381e-01 3.326786067305619876e-01
3.431704044342041016e-01 -4.989569187164306641e-01 -1.831503868103027344e+00 5.976574291384353366e-01 6.266845855225983142e-01 -3.733589123961499334e-01 3.326786620925269444e-01
3.431704342365264893e-01 -4.989568889141082764e-01 -1.831503868103027344e+00 5.976574701408946533e-01 6.266845175961145431e-01 -3.733588906774769067e-01 3.326787483491864261e-01
3.431704342365264893e-01 -4.989568591117858887e-01 -1.831503868103027344e+00 5.976575106563860595e-01 6.266844751128682889e-01 -3.733588700421615614e-01 3.326788286437466491e-01
3.431704640388488770e-01 -4.989568293094635010e-01 -1.831503868103027344e+00 5.976575493214077994e-01 6.266844096373630491e-01 -3.733588513419881516e-01 3.326788850357300098e-01
3.431704640388488770e-01 -4.989568293094635010e-01 -1.831503987312316895e+00 5.976575859411741298e-01 6.266843463064546427e-01 -3.733588097660333061e-01 3.326789643822034015e-01
3.431704938411712646e-01 -4.989567995071411133e-01 -1.831503987312316895e+00 5.976576285993034920e-01 6.266842766439235657e-01 -3.733587893505018740e-01 3.326790123183038794e-01
3.431705236434936523e-01 -4.989567697048187256e-01 -1.831503987312316895e+00 5.976576632712053971e-01 6.266842153554984529e-01 -3.733587739239967451e-01 3.326790896324393620e-01
3.431705236434936523e-01 -4.989567399024963379e-01 -1.831503987312316895e+00 5.976577157660193373e-01 6.266841603111638070e-01 -3.733587419094546722e-01 3.326791819582513576e-01
3.431705534458160400e-01 -4.989567101001739502e-01 -1.831503987312316895e+00 5.976577566710660205e-01 6.266840924868855023e-01 -3.733587179142265899e-01 3.326792526861830912e-01
3.431705832481384277e-01 -4.989567101001739502e-01 -1.831503987312316895e+00 5.976577929012478752e-01 6.266840295645237369e-01 -3.733587022934101718e-01 3.326793291328894453e-01
3.431705832481384277e-01 -4.989566802978515625e-01 -1.831503987312316895e+00 5.976578377994002933e-01 6.266839575532264783e-01 -3.733586765828261211e-01 3.326793914049364087e-01
3.431706130504608154e-01 -4.989566504955291748e-01 -1.831503987312316895e+00 5.976578781200808654e-01 6.266839152743163277e-01 -3.733586319157864986e-01 3.326794718078428525e-01
3.431706428527832031e-01 -4.989566206932067871e-01 -1.831504106521606445e+00 5.976579213625469178e-01 6.266838449991345428e-01 -3.733586103560974645e-01 3.326795505843594403e-01
3.431706428527832031e-01 -4.989565908908843994e-01 -1.831504106521606445e+00 5.976579598327562692e-01 6.266837797279886102e-01 -3.733585917776535146e-01 3.326796039681236827e-01
3.431706726551055908e-01 -4.989565610885620117e-01 -1.831504106521606445e+00 5.976580124249371018e-01 6.266836747164472587e-01 -3.733585573648878220e-01 3.326797055893671029e-01
3.431707024574279785e-01 -4.989565312862396240e-01 -1.831504106521606445e+00 5.976580512847121662e-01 6.266836339694238367e-01 -3.733585377639440650e-01 3.326797649894124853e-01
3.431707024574279785e-01 -4.989565014839172363e-01 -1.831504106521606445e+00 5.976580917027713991e-01 6.266835666558577822e-01 -3.733585171895388299e-01 3.326798453380602205e-01
3.431707322597503662e-01 -4.989565014839172363e-01 -1.831504106521606445e+00 5.976581321208277453e-01 6.266834993423038291e-01 -3.733584973942814522e-01 3.326799256866986854e-01
3.431707322597503662e-01 -4.989564716815948486e-01 -1.831504106521606445e+00 5.976581686431655660e-01 6.266834361136730536e-01 -3.733584558792526487e-01 3.326799801546816426e-01
3.431707620620727539e-01 -4.989564418792724609e-01 -1.831504106521606445e+00 5.976582092560025483e-01 6.266833935284766843e-01 -3.733584344040357661e-01 3.326800635114506299e-01
3.431707918643951416e-01 -4.989564120769500732e-01 -1.831504225730895996e+00 5.976582479209791021e-01 6.266833280531652894e-01 -3.733584157039406271e-01 3.326801167867410314e-01
3.431707918643951416e-01 -4.989563822746276855e-01 -1.831504225730895996e+00 5.976582931112759400e-01 6.266832557356430966e-01 -3.733583921483235590e-01 3.326801975954948309e-01
3.431708216667175293e-01 -4.989563822746276855e-01 -1.831504225730895996e+00 5.976583313866755676e-01 6.266831906688462572e-01 -3.733583744707462126e-01 3.326802760201980069e-01
3.431708514690399170e-01 -4.989563226699829102e-01 -1.831504225730895996e+00 5.976584331622173396e-01 6.266830590180938465e-01 -3.733583093330835601e-01 3.326804468776224377e-01
3.431708812713623047e-01 -4.989562928676605225e-01 -1.831504225730895996e+00 5.976584717297864779e-01 6.266829936449664906e-01 -3.733582657612848910e-01 3.326805251396581231e-01
3.431709110736846924e-01 -4.989562630653381348e-01 -1.831504225730895996e+00 5.976585205236015774e-01 6.266829175489789794e-01 -3.733582368379934069e-01 3.326805914762049898e-01
3.431709110736846924e-01 -4.989562332630157471e-01 -1.831504344940185547e+00 5.976585569485227678e-01 6.266828793551380006e-01 -3.733582210955721514e-01 3.326806678143327534e-01
3.431709408760070801e-01 -4.989562034606933594e-01 -1.831504344940185547e+00 5.976585895751214128e-01 6.266828202115188873e-01 -3.733582077259705034e-01 3.326807213341856917e-01
3.431709408760070801e-01 -4.989562034606933594e-01 -1.831504344940185547e+00 5.976586259026456238e-01 6.266827571872523039e-01 -3.733581912652543244e-01 3.326807977265118232e-01
3.431709706783294678e-01 -4.989561736583709717e-01 -1.831504344940185547e+00 5.976586626197388785e-01 6.266826937545058041e-01 -3.733581496286145773e-01 3.326808520859877993e-01
3.431710004806518555e-01 -4.989561438560485840e-01 -1.831504344940185547e+00 5.976587091735036106e-01 6.266826200074003816e-01 -3.733581260004163460e-01 3.326809290190987922e-01
3.431856930255889893e-01 -4.989734292030334473e-01 -1.831518054008483887e+00 5.976510600880692303e-01 6.266941312585755375e-01 -3.733337454533281474e-01 3.327003616359812121e-01
