repeatability steamvr; 20211015-225217; x y z w i j k;  frequency = 150 duration = 2 sys.args = ['.\\repeatability.py']
7.475150376558303833e-02 -3.551113605499267578e-01 -1.705446481704711914e+00 4.799373564659705771e-01 3.888233437081794475e-01 -4.925203150881959369e-01 6.131069645499448439e-01
7.475156337022781372e-02 -3.551112413406372070e-01 -1.705446600914001465e+00 4.799372730240928919e-01 3.888236752182099853e-01 -4.925203934408522999e-01 6.131067839493756777e-01
7.475157827138900757e-02 -3.551112115383148193e-01 -1.705446600914001465e+00 4.799372477974758744e-01 3.888237422279031685e-01 -4.925204144775960358e-01 6.131067540794032933e-01
7.475160062313079834e-02 -3.551111817359924316e-01 -1.705446600914001465e+00 4.799372167493299868e-01 3.888238605261677416e-01 -4.925204271772472553e-01 6.131066773120152913e-01
7.475161552429199219e-02 -3.551111519336700439e-01 -1.705446600914001465e+00 4.799371992847470958e-01 3.888239522955692640e-01 -4.925204424315249296e-01 6.131066452882844020e-01
7.475163042545318604e-02 -3.551111221313476562e-01 -1.705446720123291016e+00 4.799371779391448656e-01 3.888240006369849122e-01 -4.925204672475422263e-01 6.131066026983724715e-01
7.475164532661437988e-02 -3.551110923290252686e-01 -1.705446720123291016e+00 4.799371604745604758e-01 3.888240924064001458e-01 -4.925204817741330454e-01 6.131065396264877565e-01
7.475166022777557373e-02 -3.551110625267028809e-01 -1.705446720123291016e+00 4.799371381587018148e-01 3.888241492959234047e-01 -4.925205061304673837e-01 6.131064982760436877e-01
7.475166767835617065e-02 -3.551110327243804932e-01 -1.705446720123291016e+00 4.799371255453899199e-01 3.888241905628319062e-01 -4.925204933627337911e-01 6.131064833410504455e-01
7.475168257951736450e-02 -3.551110327243804932e-01 -1.705446720123291016e+00 4.799371119618228709e-01 3.888242636639548944e-01 -4.925205126388472743e-01 6.131064385973771236e-01
7.475169748067855835e-02 -3.551110029220581055e-01 -1.705446839332580566e+00 4.799370906162167549e-01 3.888243197674351448e-01 -4.925205379400036110e-01 6.131063960074533137e-01
7.475170493125915527e-02 -3.551109731197357178e-01 -1.705446839332580566e+00 4.799370731516292565e-01 3.888244037748421200e-01 -4.925205597435144411e-01 6.131063562216705343e-01
7.475171983242034912e-02 -3.551109433174133301e-01 -1.705446839332580566e+00 4.799370556870410920e-01 3.888244567340984892e-01 -4.925205439496496140e-01 6.131063241979252121e-01
7.475173473358154297e-02 -3.551109433174133301e-01 -1.705446839332580566e+00 4.799370382224523168e-01 3.888245329794780547e-01 -4.925205676936734722e-01 6.131062844121386579e-01
7.475174218416213989e-02 -3.551109135150909424e-01 -1.705446839332580566e+00 4.799370246388828254e-01 3.888245750324667016e-01 -4.925205876974863006e-01 6.131062474304944665e-01
7.475175708532333374e-02 -3.551108837127685547e-01 -1.705446958541870117e+00 4.799370071742928845e-01 3.888246590398965474e-01 -4.925205789379715204e-01 6.131061998826639048e-01
7.475177198648452759e-02 -3.551108539104461670e-01 -1.705446958541870117e+00 4.799369897097023330e-01 3.888247042371310025e-01 -4.925206021968733250e-01 6.131061911450326196e-01
7.475177943706512451e-02 -3.551108539104461670e-01 -1.705446958541870117e+00 4.799369732153662138e-01 3.888247486483094595e-01 -4.925206247026467365e-01 6.131061501197649921e-01
7.475179433822631836e-02 -3.551108241081237793e-01 -1.705446958541870117e+00 4.799369557507743855e-01 3.888248326557561252e-01 -4.925206465061705008e-01 6.131061103339692231e-01
7.475180178880691528e-02 -3.551107943058013916e-01 -1.705446958541870117e+00 4.799369421672025626e-01 3.888248747087623691e-01 -4.925206347341353763e-01 6.131060655902755840e-01
7.475181668996810913e-02 -3.551107943058013916e-01 -1.705447077751159668e+00 4.799369247026096796e-01 3.888249509541784610e-01 -4.925206567802258295e-01 6.131060490905997362e-01
7.475185394287109375e-02 -3.551107048988342285e-01 -1.705447077751159668e+00 4.799368761898482050e-01 3.888251222119235018e-01 -4.925206910408908567e-01 6.131059247752936869e-01
7.475186884403228760e-02 -3.551106750965118408e-01 -1.705447077751159668e+00 4.799368548442315974e-01 3.888252171256908474e-01 -4.925207066395251299e-01 6.131058899473820212e-01
7.475188374519348145e-02 -3.551106452941894531e-01 -1.705447196960449219e+00 4.799368373796354947e-01 3.888252700850073351e-01 -4.925207250471679288e-01 6.131058346374866908e-01
7.475189864635467529e-02 -3.551106452941894531e-01 -1.705447196960449219e+00 4.799368160340171663e-01 3.888253261885742940e-01 -4.925207488929776445e-01 6.131057920475272427e-01
7.475190609693527222e-02 -3.551106154918670654e-01 -1.705447196960449219e+00 4.799367975991642443e-01 3.888254109821358551e-01 -4.925207685388842682e-01 6.131057767873170361e-01
7.475192099809646606e-02 -3.551105856895446777e-01 -1.705447196960449219e+00 4.799367801345660323e-01 3.888254639414674418e-01 -4.925207566260501602e-01 6.131057292394574976e-01
7.475193589925765991e-02 -3.551105558872222900e-01 -1.705447196960449219e+00 4.799367626699672096e-01 3.888255479489795552e-01 -4.925207764890836559e-01 6.131056739295511759e-01
7.475195080041885376e-02 -3.551105260848999023e-01 -1.705447316169738770e+00 4.799367413243456060e-01 3.888256040525703283e-01 -4.925207991220832970e-01 6.131056623877597644e-01
7.475196570158004761e-02 -3.551105260848999023e-01 -1.705447316169738770e+00 4.799367238597453400e-01 3.888256880600955423e-01 -4.925208182574297711e-01 6.131056148398930095e-01
7.475197315216064453e-02 -3.551104962825775146e-01 -1.705447316169738770e+00 4.799367063951444634e-01 3.888257410194474462e-01 -4.925208068297261543e-01 6.131055595299786942e-01
7.475198805332183838e-02 -3.551104664802551270e-01 -1.705447316169738770e+00 4.799366850495203618e-01 3.888258281712366760e-01 -4.925208306755519683e-01 6.131055169400027038e-01
7.475200295448303223e-02 -3.551104366779327393e-01 -1.705447435379028320e+00 4.799366714659408228e-01 3.888258779863466019e-01 -4.925208436450435046e-01 6.131054877203679920e-01
7.475201785564422607e-02 -3.551104068756103516e-01 -1.705447435379028320e+00 4.799366491500594023e-01 3.888259659242128685e-01 -4.925208675163149086e-01 6.131054463698618617e-01
7.475203275680541992e-02 -3.551103770732879639e-01 -1.705447435379028320e+00 4.799366316854558057e-01 3.888260188835853670e-01 -4.925208881070546330e-01 6.131053988219824502e-01
7.475205510854721069e-02 -3.551103472709655762e-01 -1.705447435379028320e+00 4.799366016075259367e-01 3.888261363961174610e-01 -4.925209015090447062e-01 6.131053518631716104e-01
7.475207000970840454e-02 -3.551103174686431885e-01 -1.705447554588317871e+00 4.799365802618971166e-01 3.888262235479471030e-01 -4.925209200184774150e-01 6.131052937490890642e-01
7.475208491086959839e-02 -3.551102876663208008e-01 -1.705447554588317871e+00 4.799365618270351463e-01 3.888262772934028555e-01 -4.925209389367176671e-01 6.131052396786272896e-01
7.475209236145019531e-02 -3.551102578639984131e-01 -1.705447554588317871e+00 4.799365443624283301e-01 3.888263613009892983e-01 -4.925209595274669949e-01 6.131052231789262397e-01
7.475210726261138916e-02 -3.551102578639984131e-01 -1.705447554588317871e+00 4.799365268978209587e-01 3.888264142603908291e-01 -4.925209495551549077e-01 6.131051833930809547e-01
7.475212216377258301e-02 -3.551102280616760254e-01 -1.705447554588317871e+00 4.799365055521888079e-01 3.888264936502008329e-01 -4.925209748563882384e-01 6.131051408030826488e-01
7.475212961435317993e-02 -3.551101982593536377e-01 -1.705447673797607422e+00 4.799364919686042730e-01 3.888265434653522812e-01 -4.925209914643540188e-01 6.131050882972873817e-01
7.475214451551437378e-02 -3.551101684570312500e-01 -1.705447673797607422e+00 4.799364706229705679e-01 3.888265995690287635e-01 -4.925210160379006052e-01 6.131050767554788727e-01
7.475215941667556763e-02 -3.551101684570312500e-01 -1.705447673797607422e+00 4.799364570393849783e-01 3.888266726703347165e-01 -4.925210008699817399e-01 6.131050242496792757e-01
7.475217431783676147e-02 -3.551101386547088623e-01 -1.705447673797607422e+00 4.799364356937497744e-01 3.888267675842689286e-01 -4.925210176814827090e-01 6.131049661355728597e-01
7.475218921899795532e-02 -3.551101088523864746e-01 -1.705447673797607422e+00 4.799364143481135714e-01 3.888268236879639517e-01 -4.925210410422156682e-01 6.131049468317111284e-01
7.475220412015914917e-02 -3.551100790500640869e-01 -1.705447793006896973e+00 4.799363968835014260e-01 3.888268766474005100e-01 -4.925210616329804836e-01 6.131048992838010747e-01
7.475221157073974609e-02 -3.551100492477416992e-01 -1.705447793006896973e+00 4.799363794188886700e-01 3.888269606550424640e-01 -4.925210822237474639e-01 6.131048594979386923e-01
7.475222647190093994e-02 -3.551100194454193115e-01 -1.705447793006896973e+00 4.799363658353005269e-01 3.888270027081726643e-01 -4.925210687537787679e-01 6.131048069921263277e-01
7.475224137306213379e-02 -3.551100194454193115e-01 -1.705447793006896973e+00 4.799363444896612152e-01 3.888270898600921233e-01 -4.925210928422128487e-01 6.131047954503093811e-01
7.475225627422332764e-02 -3.551099896430969238e-01 -1.705447793006896973e+00 4.799363270250465718e-01 3.888271428195481105e-01 -4.925211134329851581e-01 6.131047479023902236e-01
7.475202530622482300e-02 -3.551090955734252930e-01 -1.705447793006896973e+00 4.799405408300428388e-01 3.888185827816361684e-01 -4.925246857773229459e-01 6.131040298876545558e-01
7.475204020738601685e-02 -3.551090359687805176e-01 -1.705447912216186523e+00 4.799405951639204582e-01 3.888185077157157998e-01 -4.925247643981203183e-01 6.131039449544349873e-01
7.475205510854721069e-02 -3.551089465618133545e-01 -1.705447912216186523e+00 4.799406543490301602e-01 3.888184287196422839e-01 -4.925248722416963876e-01 6.131038538239912405e-01
7.475207746028900146e-02 -3.551088571548461914e-01 -1.705448031425476074e+00 4.799407222663601424e-01 3.888183736972024018e-01 -4.925249851926516986e-01 6.131037515385315828e-01
7.475209236145019531e-02 -3.551087677478790283e-01 -1.705448031425476074e+00 4.799407814514541903e-01 3.888182947011790125e-01 -4.925251153518778180e-01 6.131036681701348412e-01
7.475211471319198608e-02 -3.551086783409118652e-01 -1.705448150634765625e+00 4.799408600414857839e-01 3.888182232704357477e-01 -4.925252457299531539e-01 6.131035444888388586e-01
7.475214451551437378e-02 -3.551085591316223145e-01 -1.705448150634765625e+00 4.799409512447161963e-01 3.888181028114091609e-01 -4.925253973652672923e-01 6.131034124567539267e-01
7.475215941667556763e-02 -3.551084995269775391e-01 -1.705448269844055176e+00 4.799409978165718460e-01 3.888180728437874434e-01 -4.925254698828852584e-01 6.131033374393156654e-01
7.475216686725616455e-02 -3.551084399223327637e-01 -1.705448269844055176e+00 4.799410356562012758e-01 3.888180189025722822e-01 -4.925255329269920268e-01 6.131032813388962444e-01
7.475217431783676147e-02 -3.551084101200103760e-01 -1.705448269844055176e+00 4.799410657338532560e-01 3.888179790116043644e-01 -4.925255908382611403e-01 6.131032351540643965e-01
7.475218921899795532e-02 -3.551083505153656006e-01 -1.705448269844055176e+00 4.799410987222436087e-01 3.888179367625452243e-01 -4.925256428517218454e-01 6.131031852509007951e-01
7.475219666957855225e-02 -3.551083207130432129e-01 -1.705448269844055176e+00 4.799411297701383639e-01 3.888178960855584454e-01 -4.925257007375395402e-01 6.131031378266396104e-01
7.475220412015914917e-02 -3.551082611083984375e-01 -1.705448389053344727e+00 4.799411666395107523e-01 3.888178817402768161e-01 -4.925257807863780424e-01 6.131030829657108105e-01
7.475221157073974609e-02 -3.551082313060760498e-01 -1.705448389053344727e+00 4.799411957469080225e-01 3.888178426353670614e-01 -4.925258365400105309e-01 6.131030380203602581e-01
7.475222647190093994e-02 -3.551081717014312744e-01 -1.705448389053344727e+00 4.799412277650429437e-01 3.888177934103960176e-01 -4.925258885788905139e-01 6.131029893566807276e-01
7.475223392248153687e-02 -3.551081418991088867e-01 -1.705448389053344727e+00 4.799412597831757554e-01 3.888177519474045885e-01 -4.925259398900809216e-01 6.131029717408956747e-01
7.475224137306213379e-02 -3.551081120967864990e-01 -1.705448508262634277e+00 4.799412879203209803e-01 3.888177136285463908e-01 -4.925259951840167405e-01 6.131029357969838278e-01
7.475224882364273071e-02 -3.551080524921417236e-01 -1.705448508262634277e+00 4.799413238194349396e-01 3.888177000693247010e-01 -4.925260442103787661e-01 6.131028821755489799e-01
7.475226372480392456e-02 -3.551080226898193359e-01 -1.705448508262634277e+00 4.799413568078075842e-01 3.888176578203217937e-01 -4.925261042283298196e-01 6.131028322724590973e-01
7.475227117538452148e-02 -3.551079630851745605e-01 -1.705448508262634277e+00 4.799413849449471470e-01 3.888176195014814707e-01 -4.925261590371275977e-01 6.131027885666006094e-01
7.475227862596511841e-02 -3.551079332828521729e-01 -1.705448508262634277e+00 4.799414189035616229e-01 3.888175764664621448e-01 -4.925262054461808092e-01 6.131027374240849426e-01
7.475228607654571533e-02 -3.551078736782073975e-01 -1.705448627471923828e+00 4.799414460704515273e-01 3.888175699815383246e-01 -4.925262597952875798e-01 6.131026949576861007e-01
7.475230097770690918e-02 -3.551078438758850098e-01 -1.705448627471923828e+00 4.799414819695536627e-01 3.888175253744705073e-01 -4.925263136728556534e-01 6.131026413363019900e-01
7.475231587886810303e-02 -3.551077544689178467e-01 -1.705448627471923828e+00 4.799415401843081241e-01 3.888174471647827812e-01 -4.925264130519439454e-01 6.131025514457700831e-01
7.475233823060989380e-02 -3.551076650619506836e-01 -1.705448746681213379e+00 4.799416148932327264e-01 3.888173788785108109e-01 -4.925265702132511914e-01 6.131024404847463805e-01
7.475235313177108765e-02 -3.551076054573059082e-01 -1.705448746681213379e+00 4.799416517625678114e-01 3.888173334854536645e-01 -4.925266274612080664e-01 6.131023856239742331e-01
7.475236058235168457e-02 -3.551075756549835205e-01 -1.705448746681213379e+00 4.799416798996901101e-01 3.888172951666699073e-01 -4.925266757208016100e-01 6.131023419181907963e-01
7.475236803293228149e-02 -3.551075458526611328e-01 -1.705448746681213379e+00 4.799417090070562386e-01 3.888172560618627926e-01 -4.925267234698266772e-01 6.131022969729730265e-01
7.475237548351287842e-02 -3.551074862480163574e-01 -1.705448865890502930e+00 4.799417410251569094e-01 3.888172145989747808e-01 -4.925267684743475649e-01 6.131022483094388242e-01
7.475238293409347534e-02 -3.551074564456939697e-01 -1.705448865890502930e+00 4.799417711027647027e-01 3.888172057560039807e-01 -4.925268263854994943e-01 6.131022021247959364e-01
7.475239783525466919e-02 -3.551074266433715820e-01 -1.705448865890502930e+00 4.799417992398800070e-01 3.888171674372428721e-01 -4.925268802239871624e-01 6.131021584190431417e-01
7.475240528583526611e-02 -3.551073670387268066e-01 -1.705448865890502930e+00 4.799418302877294096e-01 3.888171267604019765e-01 -4.925269245262531848e-01 6.131021187569376529e-01
7.475241273641586304e-02 -3.551073372364044189e-01 -1.705448865890502930e+00 4.799418613355768137e-01 3.888170860835680198e-01 -4.925269739223028242e-01 6.131020713328783067e-01
7.475242018699645996e-02 -3.551073074340820312e-01 -1.705448985099792480e+00 4.799418855917061966e-01 3.888170509089381999e-01 -4.925270268922999906e-01 6.131020325849090291e-01
7.475242763757705688e-02 -3.551072478294372559e-01 -1.705448985099792480e+00 4.799419185800402055e-01 3.888170397079033780e-01 -4.925270709011089765e-01 6.131019826819853469e-01
7.475243508815765381e-02 -3.551072180271148682e-01 -1.705448985099792480e+00 4.799419467171468501e-01 3.888170013891708021e-01 -4.925271206160333204e-01 6.131019389762698557e-01
7.475244253873825073e-02 -3.551071882247924805e-01 -1.705448985099792480e+00 4.799419758244967693e-01 3.888169622844163675e-01 -4.925271686075827215e-01 6.131018940311221410e-01
7.475245743989944458e-02 -3.551071286201477051e-01 -1.705448985099792480e+00 4.799420097830695009e-01 3.888169192495303239e-01 -4.925272523709788852e-01 6.131018428887861083e-01
7.475246489048004150e-02 -3.551070690155029297e-01 -1.705449104309082031e+00 4.799420466523742768e-01 3.888168738565704330e-01 -4.925273166531423663e-01 6.131017880281437460e-01
7.475247979164123535e-02 -3.551070392131805420e-01 -1.705449104309082031e+00 4.799420835216762216e-01 3.888168517494937637e-01 -4.925273717179737831e-01 6.131017331675133741e-01
7.475248724222183228e-02 -3.551069796085357666e-01 -1.705449104309082031e+00 4.799421223314647156e-01 3.888168047844967057e-01 -4.925274449240026331e-01 6.131016758280184442e-01
7.475249469280242920e-02 -3.551069498062133789e-01 -1.705449104309082031e+00 4.799421553197824042e-01 3.888167625356701018e-01 -4.925274896604613928e-01 6.131016569729921262e-01
7.475250959396362305e-02 -3.551068902015686035e-01 -1.705449223518371582e+00 4.799421795758969655e-01 3.888167273610902419e-01 -4.925275423878540670e-01 6.131016182250863533e-01
7.475251704454421997e-02 -3.551068603992462158e-01 -1.705449223518371582e+00 4.799422193559221284e-01 3.888167028959600424e-01 -4.925276153258589251e-01 6.131015596461846240e-01
7.475252449512481689e-02 -3.551068007946014404e-01 -1.705449223518371582e+00 4.799422513739887708e-01 3.888166614331806104e-01 -4.925276593600629305e-01 6.131015109827947507e-01
7.475253939628601074e-02 -3.551067709922790527e-01 -1.705449223518371582e+00 4.799422804813202603e-01 3.888166223284865164e-01 -4.925277090494957211e-01 6.131014660377251957e-01
7.475254684686660767e-02 -3.551067411899566650e-01 -1.705449342727661133e+00 4.799423124993828504e-01 3.888165808657210731e-01 -4.925277525985699012e-01 6.131014173743528639e-01
7.475255429744720459e-02 -3.551066815853118896e-01 -1.705449342727661133e+00 4.799423367554894182e-01 3.888165456911683582e-01 -4.925278053259402600e-01 6.131013863884361426e-01
7.475256174802780151e-02 -3.551066517829895020e-01 -1.705449342727661133e+00 4.799423648925715269e-01 3.888165151344714632e-01 -4.925278526151928848e-01 6.131013426828250124e-01
7.475256919860839844e-02 -3.551066219806671143e-01 -1.705449342727661133e+00 4.799423969106284549e-01 3.888165047195367707e-01 -4.925278966493776833e-01 6.131012940194767724e-01
7.475257664918899536e-02 -3.551065623760223389e-01 -1.705449342727661133e+00 4.799424240774630146e-01 3.888164671869216993e-01 -4.925279442066263225e-01 6.131012515533168505e-01
7.475258409976959229e-02 -3.551065325736999512e-01 -1.705449342727661133e+00 4.799424483335639202e-01 3.888164320123875251e-01 -4.925280267689839397e-01 6.131012128054708077e-01
7.475259155035018921e-02 -3.551065027713775635e-01 -1.705449461936950684e+00 4.799424803516152971e-01 3.888163905496583306e-01 -4.925280703180331954e-01 6.131011641421467706e-01
7.475260645151138306e-02 -3.551064729690551758e-01 -1.705449461936950684e+00 4.799425084886890236e-01 3.888163522310353337e-01 -4.925281190626306094e-01 6.131011281985235817e-01
7.475261390209197998e-02 -3.551063835620880127e-01 -1.705449461936950684e+00 4.799425589413687243e-01 3.888163191197050450e-01 -4.925281958442296881e-01 6.131010482240043524e-01
7.475262880325317383e-02 -3.551063537597656250e-01 -1.705449461936950684e+00 4.799425909594127182e-01 3.888162776569988877e-01 -4.925282537043601527e-01 6.131009995607119567e-01
7.475263625383377075e-02 -3.551063239574432373e-01 -1.705449581146240234e+00 4.799426181262362867e-01 3.888162401244207866e-01 -4.925283087809690930e-01 6.131009570945998854e-01
7.475265115499496460e-02 -3.551062643527984619e-01 -1.705449581146240234e+00 4.799426627574430171e-01 3.888161806814683374e-01 -4.925283721317907926e-01 6.131008923186833659e-01
7.475265860557556152e-02 -3.551062047481536865e-01 -1.705449581146240234e+00 4.799426870135319323e-01 3.888161765547687998e-01 -4.925284236463050025e-01 6.131008535708900586e-01
7.475266605615615845e-02 -3.551061749458312988e-01 -1.705449581146240234e+00 4.799427141803500052e-01 3.888161390222083513e-01 -4.925284709609511480e-01 6.131008111048018572e-01
