repeatability steamvr; 20211015-230109; x y z w i j k;  frequency = 150 duration = 2 sys.args = ['.\\repeatability.py']
9.356257319450378418e-02 -3.844586610794067383e-01 -1.686404824256896973e+00 5.638755011284246610e-01 4.339535528389132923e-01 -3.910721352079177260e-01 5.837732916213173029e-01
9.356244653463363647e-02 -3.844595253467559814e-01 -1.686404466629028320e+00 5.638805896195631107e-01 4.339383759977887833e-01 -3.910697325625286935e-01 5.837812763031813290e-01
9.356236457824707031e-02 -3.844596743583679199e-01 -1.686404347419738770e+00 5.638806011809789354e-01 4.339382118473217864e-01 -3.910697806997543435e-01 5.837813436120148358e-01
9.356230497360229492e-02 -3.844597935676574707e-01 -1.686404347419738770e+00 5.638806102649482899e-01 4.339380892425356295e-01 -3.910698041290764371e-01 5.837814134857275405e-01
9.356226027011871338e-02 -3.844598829746246338e-01 -1.686404347419738770e+00 5.638806183166483743e-01 4.339380136778041575e-01 -3.910698183645260340e-01 5.837814580020466160e-01
9.356220066547393799e-02 -3.844600021839141846e-01 -1.686404347419738770e+00 5.638806226521790865e-01 4.339379013337388291e-01 -3.910698649066148835e-01 5.837815063656875969e-01
9.356215596199035645e-02 -3.844600915908813477e-01 -1.686404228210449219e+00 5.638806288457943738e-01 4.339377941662977967e-01 -3.910698837339680600e-01 5.837815528056661263e-01
9.356210380792617798e-02 -3.844601809978485107e-01 -1.686404228210449219e+00 5.638806338006865371e-01 4.339377127265865997e-01 -3.910699298465077911e-01 5.837815873150391521e-01
9.356206655502319336e-02 -3.844602704048156738e-01 -1.686404228210449219e+00 5.638806399943016023e-01 4.339376286819796591e-01 -3.910699354608144773e-01 5.837816205419705806e-01
9.356202185153961182e-02 -3.844603598117828369e-01 -1.686404228210449219e+00 5.638806488718165477e-01 4.339375557850096432e-01 -3.910699689430994774e-01 5.837816774163694378e-01
9.356196224689483643e-02 -3.844604492187500000e-01 -1.686404109001159668e+00 5.638806573364236741e-01 4.339374336568779800e-01 -3.910699961052261919e-01 5.837817347182471250e-01
9.356191754341125488e-02 -3.844605386257171631e-01 -1.686404109001159668e+00 5.638806591945081381e-01 4.339373628584920484e-01 -3.910700113328892114e-01 5.837817724337205361e-01
9.356188029050827026e-02 -3.844605982303619385e-01 -1.686404109001159668e+00 5.638806664203921404e-01 4.339372829743967097e-01 -3.910700360508492790e-01 5.837817913789025148e-01
9.356185048818588257e-02 -3.844606578350067139e-01 -1.686404109001159668e+00 5.638806738527298856e-01 4.339372310091461071e-01 -3.910700606256261591e-01 5.837818233233885712e-01
9.356182068586349487e-02 -3.844607174396514893e-01 -1.686404109001159668e+00 5.638806748849990447e-01 4.339371839691014698e-01 -3.910700632129742726e-01 5.837818486807768714e-01
9.356179088354110718e-02 -3.844608068466186523e-01 -1.686404109001159668e+00 5.638806819044290819e-01 4.339371042438883164e-01 -3.910700880741156960e-01 5.837818678396977656e-01
9.356176108121871948e-02 -3.844608664512634277e-01 -1.686403989791870117e+00 5.638806825237905329e-01 4.339370591732302218e-01 -3.910701173739181691e-01 5.837818936245661172e-01
9.356173127889633179e-02 -3.844609260559082031e-01 -1.686403989791870117e+00 5.638806899561280561e-01 4.339370072079842267e-01 -3.910701155226046222e-01 5.837819255690501752e-01
9.356169402599334717e-02 -3.844609856605529785e-01 -1.686403989791870117e+00 5.638806909883971041e-01 4.339369320902221050e-01 -3.910701445360413864e-01 5.837819509264376983e-01
9.356166422367095947e-02 -3.844610452651977539e-01 -1.686403989791870117e+00 5.638806986271883703e-01 4.339368816177316956e-01 -3.910701425415449295e-01 5.837819958702245016e-01
9.356163442134857178e-02 -3.844611048698425293e-01 -1.686403989791870117e+00 5.638806992465498213e-01 4.339368348954447119e-01 -3.910701718413464589e-01 5.837820216550920760e-01
9.356160461902618408e-02 -3.844611644744873047e-01 -1.686403989791870117e+00 5.638807072982485735e-01 4.339367576791136050e-01 -3.910701959865724442e-01 5.837820529583528373e-01
9.356157481670379639e-02 -3.844612240791320801e-01 -1.686403870582580566e+00 5.638807077111561705e-01 4.339367111157049206e-01 -3.910701990034681774e-01 5.837820789569602153e-01
9.356154501438140869e-02 -3.844612538814544678e-01 -1.686403870582580566e+00 5.638807157628548117e-01 4.339366586738339637e-01 -3.910702231486935521e-01 5.837820970471759852e-01
9.356151521205902100e-02 -3.844613134860992432e-01 -1.686403870582580566e+00 5.638807172080314567e-01 4.339365865415822365e-01 -3.910702485725024991e-01 5.837821219770814585e-01
9.356148540973663330e-02 -3.844613730907440186e-01 -1.686403870582580566e+00 5.638807244339146818e-01 4.339365347352233115e-01 -3.910702468643703633e-01 5.837821541353013233e-01
9.356145560741424561e-02 -3.844614326953887939e-01 -1.686403870582580566e+00 5.638807252597299868e-01 4.339364878540615256e-01 -3.910702760209877060e-01 5.837821797064270957e-01
9.356142580509185791e-02 -3.844614923000335693e-01 -1.686403870582580566e+00 5.638807331049745519e-01 4.339364091449861016e-01 -3.910703003093941033e-01 5.837821980103815589e-01
9.356139600276947021e-02 -3.844615519046783447e-01 -1.686403870582580566e+00 5.638807343436973429e-01 4.339363635977012135e-01 -3.910703027535589182e-01 5.837822231540262807e-01
9.356135874986648560e-02 -3.844616115093231201e-01 -1.686403751373291016e+00 5.638807415695803460e-01 4.339363117913469514e-01 -3.910703274715126576e-01 5.837822817383305773e-01
9.356132894754409790e-02 -3.844616711139678955e-01 -1.686403751373291016e+00 5.638807430147569910e-01 4.339362396590993876e-01 -3.910703561985809928e-01 5.837823066682343853e-01
9.356129914522171021e-02 -3.844617307186126709e-01 -1.686403751373291016e+00 5.638807436341183310e-01 4.339361929368168447e-01 -3.910703557690329846e-01 5.837823324530996283e-01
9.356126934289932251e-02 -3.844617903232574463e-01 -1.686403751373291016e+00 5.638807514793626741e-01 4.339361423054645672e-01 -3.910703800574376054e-01 5.837823507570515380e-01
9.356123954057693481e-02 -3.844618499279022217e-01 -1.686403751373291016e+00 5.638807520987241251e-01 4.339360675054664829e-01 -3.910703829311502067e-01 5.837823897549592189e-01
9.356117248535156250e-02 -3.844619989395141602e-01 -1.686403751373291016e+00 5.638807634536827651e-01 4.339359266367984747e-01 -3.910704444245763911e-01 5.837824440644516777e-01
9.356112033128738403e-02 -3.844620883464813232e-01 -1.686403632164001465e+00 5.638807704731116921e-01 4.339358502148749630e-01 -3.910704593759281034e-01 5.837824764364057950e-01
9.356109052896499634e-02 -3.844621479511260986e-01 -1.686403632164001465e+00 5.638807774925403971e-01 4.339357952641473837e-01 -3.910704842370613110e-01 5.837825088083593572e-01
9.356105327606201172e-02 -3.844622075557708740e-01 -1.686403632164001465e+00 5.638807776989942511e-01 4.339357191302767869e-01 -3.910704907003997310e-01 5.837825350207035413e-01
9.356102347373962402e-02 -3.844622671604156494e-01 -1.686403632164001465e+00 5.638807847184229560e-01 4.339356674828120930e-01 -3.910705155615322171e-01 5.837825806056980982e-01
9.356099367141723633e-02 -3.844623267650604248e-01 -1.686403632164001465e+00 5.638807915313978070e-01 4.339355879165113228e-01 -3.910705405658469469e-01 5.837826131913900207e-01
9.356096386909484863e-02 -3.844624161720275879e-01 -1.686403632164001465e+00 5.638807919443052930e-01 4.339355397014802440e-01 -3.910705468860025125e-01 5.837826391899932910e-01
9.356092661619186401e-02 -3.844624757766723633e-01 -1.686403512954711914e+00 5.638807991701876299e-01 4.339354862435120808e-01 -3.910705716039510893e-01 5.837826581351613919e-01
9.356089681386947632e-02 -3.844625353813171387e-01 -1.686403512954711914e+00 5.638807997895489699e-01 4.339354114435211018e-01 -3.910705744776633019e-01 5.837826971330655201e-01
9.356086701154708862e-02 -3.844625949859619141e-01 -1.686403512954711914e+00 5.638808068089774528e-01 4.339353597960624032e-01 -3.910705993387939561e-01 5.837827162919732027e-01
9.356082975864410400e-02 -3.844626545906066895e-01 -1.686403512954711914e+00 5.638808144477670536e-01 4.339353060203445800e-01 -3.910706237703758803e-01 5.837827348096591429e-01
9.356079995632171631e-02 -3.844627141952514648e-01 -1.686403512954711914e+00 5.638808148606746506e-01 4.339352313792326221e-01 -3.910706300905311128e-01 5.837827740213026306e-01
9.356077015399932861e-02 -3.844627737998962402e-01 -1.686403512954711914e+00 5.638808218801028005e-01 4.339351780801476433e-01 -3.910706549516606567e-01 5.837827931802090919e-01
9.356072545051574707e-02 -3.844628632068634033e-01 -1.686403393745422363e+00 5.638808245640019035e-01 4.339351132528038169e-01 -3.910706927294084756e-01 5.837828300407065241e-01
9.356069564819335938e-02 -3.844629228115081787e-01 -1.686403393745422363e+00 5.638808326156987683e-01 4.339350343848858427e-01 -3.910706904485408697e-01 5.837828745569918487e-01
9.356066584587097168e-02 -3.844629824161529541e-01 -1.686403393745422363e+00 5.638808330286063653e-01 4.339349878214887046e-01 -3.910707198915177041e-01 5.837829137686338932e-01
9.356063604354858398e-02 -3.844630420207977295e-01 -1.686403393745422363e+00 5.638808408738493760e-01 4.339349371901622399e-01 -3.910707177538325641e-01 5.837829320725761439e-01
9.356057643890380859e-02 -3.844631314277648926e-01 -1.686403393745422363e+00 5.638808450029246799e-01 4.339348233534126575e-01 -3.910707677423402306e-01 5.837829806499289509e-01
9.356054663658142090e-02 -3.844631910324096680e-01 -1.686403393745422363e+00 5.638808514029912677e-01 4.339347688793355196e-01 -3.910707666069340727e-01 5.837830004500537129e-01
9.356049448251724243e-02 -3.844633102416992188e-01 -1.686403274536132812e+00 5.638808573901502585e-01 4.339346618708508907e-01 -3.910708120035352175e-01 5.837830471037402935e-01
9.356046468019485474e-02 -3.844633698463439941e-01 -1.686403274536132812e+00 5.638808648224854503e-01 4.339346099056543560e-01 -3.910708101522147317e-01 5.837830658351612634e-01
9.356042742729187012e-02 -3.844634294509887695e-01 -1.686403274536132812e+00 5.638808695709218721e-01 4.339345236699931330e-01 -3.910708431948710095e-01 5.837831005582492239e-01
9.356034547090530396e-02 -3.844635784626007080e-01 -1.686403274536132812e+00 5.638808770032569528e-01 4.339343709553694639e-01 -3.910708908924502847e-01 5.837831985679095004e-01
9.356028586626052856e-02 -3.844636976718902588e-01 -1.686403155326843262e+00 5.638808858807681235e-01 4.339342716324046112e-01 -3.910709144649289204e-01 5.837832554422635045e-01
9.356023371219635010e-02 -3.844638168811798096e-01 -1.686403155326843262e+00 5.638808970292703560e-01 4.339341556971337277e-01 -3.910709595852150944e-01 5.837832835393899078e-01
9.356016665697097778e-02 -3.844639360904693604e-01 -1.686403155326843262e+00 5.638809057003274505e-01 4.339340301069736783e-01 -3.910709866041346960e-01 5.837833406274814951e-01
9.356010705232620239e-02 -3.844640552997589111e-01 -1.686403036117553711e+00 5.638809075584111374e-01 4.339339394890717738e-01 -3.910710150448276079e-01 5.837833915559731413e-01
9.356006234884262085e-02 -3.844641447067260742e-01 -1.686403036117553711e+00 5.638809209779039877e-01 4.339338267610636790e-01 -3.910710552868391643e-01 5.837834305149882663e-01
9.356001019477844238e-02 -3.844642639160156250e-01 -1.686403036117553711e+00 5.638809261392473404e-01 4.339337187364775139e-01 -3.910710748300859074e-01 5.837835044497056147e-01
9.355994313955307007e-02 -3.844643831253051758e-01 -1.686403036117553711e+00 5.638809348103041019e-01 4.339336179207783917e-01 -3.910711018490025670e-01 5.837835483247525437e-01
9.355990588665008545e-02 -3.844644427299499512e-01 -1.686402916908264160e+00 5.638809389393786287e-01 4.339335305101352236e-01 -3.910711386244610788e-01 5.837835836890549190e-01
9.355987608432769775e-02 -3.844645023345947266e-01 -1.686402916908264160e+00 5.638809453394441062e-01 4.339334776877124544e-01 -3.910711639151284724e-01 5.837836167022091294e-01
9.355983883142471313e-02 -3.844645619392395020e-01 -1.686402916908264160e+00 5.638809457523515922e-01 4.339334294726960861e-01 -3.910711669320223183e-01 5.837836427008045170e-01
9.355980157852172852e-02 -3.844646513462066650e-01 -1.686402916908264160e+00 5.638809558685839995e-01 4.339333341513923470e-01 -3.910711995551758302e-01 5.837836718666251645e-01
9.355977177619934082e-02 -3.844647109508514404e-01 -1.686402916908264160e+00 5.638809566943989715e-01 4.339332839669951536e-01 -3.910712055889632999e-01 5.837836974377385024e-01
9.355974197387695312e-02 -3.844647705554962158e-01 -1.686402916908264160e+00 5.638809637138253450e-01 4.339332339712086983e-01 -3.910712271468211321e-01 5.837837298096685279e-01
9.355970472097396851e-02 -3.844648301601409912e-01 -1.686402797698974609e+00 5.638809651590014349e-01 4.339331601873681610e-01 -3.910712558738762001e-01 5.837837547395594573e-01
9.355967491865158081e-02 -3.844648897647857666e-01 -1.686402797698974609e+00 5.638809730042426693e-01 4.339331079044506101e-01 -3.910712537361853980e-01 5.837837994695630472e-01
9.355964511632919312e-02 -3.844649493694305420e-01 -1.686402797698974609e+00 5.638809734171500443e-01 4.339330365666208555e-01 -3.910712831791545718e-01 5.837838254681572137e-01
9.355977922677993774e-02 -3.844650387763977051e-01 -1.686403155326843262e+00 5.638794181991696464e-01 4.339421149823629587e-01 -3.910651705648484078e-01 5.837827004774924777e-01
9.355971962213516235e-02 -3.844651579856872559e-01 -1.686403155326843262e+00 5.638794014763723883e-01 4.339421129869412974e-01 -3.910651028840997911e-01 5.837827177905556830e-01
9.355968981981277466e-02 -3.844652175903320312e-01 -1.686403155326843262e+00 5.638793932182006863e-01 4.339421259486825333e-01 -3.910650821852081904e-01 5.837827527663667082e-01
9.355966001749038696e-02 -3.844652771949768066e-01 -1.686403155326843262e+00 5.638793868181175561e-01 4.339421110543533189e-01 -3.910650601976831120e-01 5.837827726054298783e-01
9.355963021516799927e-02 -3.844653367996215820e-01 -1.686403036117553711e+00 5.638793793857628245e-01 4.339421217289402000e-01 -3.910650422293335815e-01 5.837827935132013923e-01
9.355960041284561157e-02 -3.844653964042663574e-01 -1.686403036117553711e+00 5.638793729856795833e-01 4.339421332607612536e-01 -3.910650235450763845e-01 5.837828133522655616e-01
9.355957806110382080e-02 -3.844654560089111328e-01 -1.686403036117553711e+00 5.638793665855962312e-01 4.339421431409481444e-01 -3.910649751313991507e-01 5.837828331913303970e-01
9.355954825878143311e-02 -3.844655156135559082e-01 -1.686403036117553711e+00 5.638793599790584699e-01 4.339421548316499400e-01 -3.910649565903223657e-01 5.837828532441372564e-01
9.355951845645904541e-02 -3.844655752182006836e-01 -1.686403036117553711e+00 5.638793535789748956e-01 4.339421382856861187e-01 -3.910649379060637809e-01 5.837828730832030910e-01
9.355948865413665771e-02 -3.844656348228454590e-01 -1.686403036117553711e+00 5.638793471788913214e-01 4.339421481658735646e-01 -3.910649159185358714e-01 5.837828929222694807e-01
9.355946630239486694e-02 -3.844656944274902344e-01 -1.686403036117553711e+00 5.638793405723533381e-01 4.339421598565760263e-01 -3.910648973774578652e-01 5.837829129750780055e-01
9.355943650007247925e-02 -3.844657540321350098e-01 -1.686403036117553711e+00 5.638793341722696528e-01 4.339421697367640829e-01 -3.910648522670457372e-01 5.837829328141453944e-01
9.355940669775009155e-02 -3.844658136367797852e-01 -1.686402916908264160e+00 5.638793341722696528e-01 4.339421499171497998e-01 -3.910648291441624069e-01 5.837829460272215831e-01
9.355937689542770386e-02 -3.844658732414245605e-01 -1.686402916908264160e+00 5.638793269463685531e-01 4.339421604328586035e-01 -3.910648077293581437e-01 5.837829799343327020e-01
9.355935454368591309e-02 -3.844659328460693359e-01 -1.686402916908264160e+00 5.638793205462846458e-01 4.339421719646816000e-01 -3.910647890450970610e-01 5.837829997734015341e-01
9.355932474136352539e-02 -3.844659924507141113e-01 -1.686402916908264160e+00 5.638793139397463294e-01 4.339421820037505650e-01 -3.910647672007477871e-01 5.837830198262126125e-01
9.355928003787994385e-02 -3.844660818576812744e-01 -1.686402916908264160e+00 5.638793009331238837e-01 4.339421738452205468e-01 -3.910647167623279574e-01 5.837830465050176665e-01
9.355925023555755615e-02 -3.844661414623260498e-01 -1.686402916908264160e+00 5.638792908168617224e-01 4.339421882368877381e-01 -3.910646940487909062e-01 5.837830569783626355e-01
9.355920553207397461e-02 -3.844662308692932129e-01 -1.686402916908264160e+00 5.638792844167774820e-01 4.339422030719814471e-01 -3.910646588481808683e-01 5.837830768174339102e-01
9.355915337800979614e-02 -3.844663500785827637e-01 -1.686402797698974609e+00 5.638792732682432751e-01 4.339421951351650764e-01 -3.910646236374715201e-01 5.837831147856441527e-01
9.355910122394561768e-02 -3.844664394855499268e-01 -1.686402797698974609e+00 5.638792631519806697e-01 4.339422128301031467e-01 -3.910645612846984642e-01 5.837831516851470504e-01
9.355907142162322998e-02 -3.844665288925170898e-01 -1.686402797698974609e+00 5.638792548938069693e-01 4.339422257918505443e-01 -3.910645405857952617e-01 5.837831734478970969e-01
9.355904161930084229e-02 -3.844665884971618652e-01 -1.686402797698974609e+00 5.638792474614505723e-01 4.339422100402863247e-01 -3.910645193141662479e-01 5.837832075687587885e-01
9.355901181697845459e-02 -3.844666481018066406e-01 -1.686402797698974609e+00 5.638792400290939533e-01 4.339422223665133638e-01 -3.910645013458064478e-01 5.837832284765431812e-01
9.355895221233367920e-02 -3.844667673110961914e-01 -1.686402678489685059e+00 5.638792253708350133e-01 4.339422452084534809e-01 -3.910644322332073042e-01 5.837832700783718298e-01
9.355891495943069458e-02 -3.844668567180633545e-01 -1.686402678489685059e+00 5.638792206223848247e-01 4.339422306947156027e-01 -3.910644024936799634e-01 5.837832882075136842e-01
9.355887770652770996e-02 -3.844669461250305176e-01 -1.686402678489685059e+00 5.638792078222145676e-01 4.339422488034651026e-01 -3.910643750349521164e-01 5.837833278856687791e-01
9.355884790420532227e-02 -3.844670057296752930e-01 -1.686402678489685059e+00 5.638791993575856809e-01 4.339422619240951851e-01 -3.910643544792259951e-01 5.837833498621662898e-01
9.355881810188293457e-02 -3.844670653343200684e-01 -1.686402678489685059e+00 5.638791929575003303e-01 4.339422453781291988e-01 -3.910643093687975469e-01 5.837833697012453360e-01
9.355878829956054688e-02 -3.844671249389648438e-01 -1.686402678489685059e+00 5.638791931639546284e-01 4.339422518257887162e-01 -3.910642827994573745e-01 5.837833562744240146e-01
9.355875849723815918e-02 -3.844671845436096191e-01 -1.686402678489685059e+00 5.638791865574148687e-01 4.339422618648619556e-01 -3.910642642583680995e-01 5.837833895403249374e-01
9.355873614549636841e-02 -3.844672441482543945e-01 -1.686402559280395508e+00 5.638791801573294071e-01 4.339422733966902257e-01 -3.910642455740972467e-01 5.837834093794048718e-01
9.355870634317398071e-02 -3.844673037528991699e-01 -1.686402559280395508e+00 5.638791737572438345e-01 4.339422568507239619e-01 -3.910642268898260610e-01 5.837834292184854723e-01
9.355867654085159302e-02 -3.844673633575439453e-01 -1.686402559280395508e+00 5.638791671507038528e-01 4.339422668897978119e-01 -3.910642050454656848e-01 5.837834492713085410e-01
9.355864673852920532e-02 -3.844674229621887207e-01 -1.686402559280395508e+00 5.638791599248006436e-01 4.339422790571478283e-01 -3.910641605077581073e-01 5.837834699653581261e-01
9.355862438678741455e-02 -3.844674825668334961e-01 -1.686402559280395508e+00 5.638791533182604399e-01 4.339422890962223445e-01 -3.910641419666666119e-01 5.837834900181824160e-01
9.355859458446502686e-02 -3.844675123691558838e-01 -1.686402559280395508e+00 5.638791469181745342e-01 4.339422742018907986e-01 -3.910641199791234368e-01 5.837835098572652370e-01
9.355856478214263916e-02 -3.844675719738006592e-01 -1.686402559280395508e+00 5.638791405180886285e-01 4.339422840820852389e-01 -3.910641012948499751e-01 5.837835296963483911e-01
