repeatability steamvr; 20211015-225137; x y z w i j k;  frequency = 150 duration = 2 sys.args = ['.\\repeatability.py']
-2.329985350370407104e-01 -3.905078768730163574e-01 -1.937986969947814941e+00 4.046902424487418271e-02 4.026625015722141709e-01 4.353810413954377068e-01 -8.041494878460236917e-01
-2.329979091882705688e-01 -3.905074596405029297e-01 -1.937987327575683594e+00 4.046902424487418271e-02 4.026613969376346414e-01 4.353792003378051390e-01 -8.041463580480483486e-01
-2.329976558685302734e-01 -3.905073106288909912e-01 -1.937987565994262695e+00 4.046893219188785890e-02 4.026619446422977089e-01 4.353790860395581608e-01 -8.041470825690211210e-01
-2.329974025487899780e-01 -3.905071616172790527e-01 -1.937987685203552246e+00 4.046902424487418271e-02 4.026602923030550563e-01 4.353777274916990625e-01 -8.041439646731259883e-01
-2.329972088336944580e-01 -3.905070126056671143e-01 -1.937987804412841797e+00 4.046865603167254521e-02 4.026635877837377864e-01 4.353813206593509233e-01 -8.041501767138725665e-01
-2.329970151185989380e-01 -3.905068933963775635e-01 -1.937987923622131348e+00 4.046874808528704015e-02 4.026623036372708464e-01 4.353795938763407314e-01 -8.041476110982391790e-01
-2.329968214035034180e-01 -3.905067741870880127e-01 -1.937988042831420898e+00 4.046865603167254521e-02 4.026628513539842191e-01 4.353802160147206002e-01 -8.041485197469270263e-01
-2.329965978860855103e-01 -3.905066251754760742e-01 -1.937988162040710449e+00 4.046874808528704015e-02 4.026615672091924392e-01 4.353784892342231205e-01 -8.041455859210235868e-01
-2.329964041709899902e-01 -3.905065059661865234e-01 -1.937988400459289551e+00 4.046865603167254521e-02 4.026621149242307074e-01 4.353787431552135212e-01 -8.041463104576663801e-01
-2.329961955547332764e-01 -3.905063867568969727e-01 -1.937988519668579102e+00 4.046856397784865528e-02 4.026626626438442047e-01 4.353789970796118625e-01 -8.041472191096235012e-01
-2.329959720373153687e-01 -3.905062377452850342e-01 -1.937988638877868652e+00 4.046837986957269040e-02 4.026637580967971086e-01 4.353806095908011042e-01 -8.041497728732009964e-01
-2.329957783222198486e-01 -3.905061185359954834e-01 -1.937988758087158203e+00 4.046847192381537034e-02 4.026624739349290993e-01 4.353788827908662840e-01 -8.041468390119436149e-01
-2.329955995082855225e-01 -3.905059993267059326e-01 -1.937988877296447754e+00 4.046837986957269040e-02 4.026630216620180613e-01 4.353795049386325333e-01 -8.041479317862534337e-01
-2.329953461885452271e-01 -3.905058503150939941e-01 -1.937988996505737305e+00 4.046828781512060852e-02 4.026632011754552876e-01 4.353797588732549739e-01 -8.041484722423550835e-01
-2.329951375722885132e-01 -3.905057013034820557e-01 -1.937989234924316406e+00 4.046828781512060852e-02 4.026628329572281562e-01 4.353793906550278425e-01 -8.041475516967873105e-01
-2.329949587583541870e-01 -3.905055820941925049e-01 -1.937989354133605957e+00 4.046819576045912470e-02 4.026637489108574885e-01 4.353796445922208380e-01 -8.041484603764795791e-01
-2.329947948455810547e-01 -3.905054926872253418e-01 -1.937989354133605957e+00 4.046810370558824588e-02 4.026639284309328493e-01 4.353798985328218851e-01 -8.041495531744179415e-01
-2.329946011304855347e-01 -3.905053734779357910e-01 -1.937989592552185059e+00 4.046819576045912470e-02 4.026626442536633266e-01 4.353789081540914152e-01 -8.041468033906883361e-01
-2.329944074153900146e-01 -3.905052542686462402e-01 -1.937989711761474609e+00 4.046810370558824588e-02 4.026631919911282109e-01 4.353787938731148999e-01 -8.041475279649551444e-01
-2.329942584037780762e-01 -3.905051648616790771e-01 -1.937989711761474609e+00 4.046801165050796512e-02 4.026641079539085011e-01 4.353794160353512410e-01 -8.041488048777893916e-01
-2.329939603805541992e-01 -3.905049562454223633e-01 -1.937989950180053711e+00 4.046810370558824588e-02 4.026624555513235171e-01 4.353776892134079146e-01 -8.041453186455411739e-01
-2.329937815666198730e-01 -3.905048370361328125e-01 -1.937990069389343262e+00 4.046801165050796512e-02 4.026630032916886925e-01 4.353783113731314325e-01 -8.041462273326098753e-01
-2.329936027526855469e-01 -3.905047476291656494e-01 -1.937990188598632812e+00 4.046791959521827547e-02 4.026631828150518677e-01 4.353789335379384395e-01 -8.041473201387625558e-01
-2.329933941364288330e-01 -3.905045986175537109e-01 -1.937990307807922363e+00 4.046791959521827547e-02 4.026628145934743053e-01 4.353781970947833146e-01 -8.041463995848187052e-01
-2.329931855201721191e-01 -3.905044794082641602e-01 -1.937990427017211914e+00 4.046782753971918389e-02 4.026633623413154450e-01 4.353784510405833141e-01 -8.041471241755950849e-01
-2.329930067062377930e-01 -3.905043601989746094e-01 -1.937990546226501465e+00 4.046773548401068343e-02 4.026642783169850359e-01 4.353790732130444763e-01 -8.041480328854556658e-01
-2.329928278923034668e-01 -3.905042409896850586e-01 -1.937990665435791016e+00 4.046764342809277409e-02 4.026648260748151853e-01 4.353793271664987419e-01 -8.041491257156569983e-01
-2.329926192760467529e-01 -3.905041217803955078e-01 -1.937990903854370117e+00 4.046773548401068343e-02 4.026631736472265910e-01 4.353779685432860314e-01 -8.041461917691915540e-01
-2.329924106597900391e-01 -3.905039727687835693e-01 -1.937991023063659668e+00 4.046764342809277409e-02 4.026637214025438616e-01 4.353782224942274182e-01 -8.041469163711142398e-01
-2.329922020435333252e-01 -3.905038535594940186e-01 -1.937991142272949219e+00 4.046773548401068343e-02 4.026624372007209796e-01 4.353764956502747530e-01 -8.041441665413010531e-01
-2.329918593168258667e-01 -3.905036151409149170e-01 -1.937991380691528320e+00 4.046755137196546281e-02 4.026631644876525473e-01 4.353777399987208696e-01 -8.041461680807824308e-01
-2.329916656017303467e-01 -3.905034959316253662e-01 -1.937991499900817871e+00 4.046736725908259280e-02 4.026649964693469474e-01 4.353789843675017202e-01 -8.041487219950267384e-01
-2.329914718866348267e-01 -3.905033767223358154e-01 -1.937991619110107422e+00 4.046727520232704101e-02 4.026655442421298581e-01 4.353796065595177955e-01 -8.041496307396643894e-01
-2.329913228750228882e-01 -3.905032873153686523e-01 -1.937991738319396973e+00 4.046736725908259280e-02 4.026642600161401409e-01 4.353782479142949691e-01 -8.041470649753114097e-01
-2.329911589622497559e-01 -3.905031681060791016e-01 -1.937991857528686523e+00 4.046727520232704101e-02 4.026648077872477804e-01 4.353788701046357179e-01 -8.041479737161797425e-01
-2.329909950494766235e-01 -3.905030786991119385e-01 -1.937991976737976074e+00 4.046736725908259280e-02 4.026635235629333898e-01 4.353771432344847869e-01 -8.041455920688979075e-01
-2.329908311367034912e-01 -3.905029594898223877e-01 -1.937991976737976074e+00 4.046736725908259280e-02 4.026631553363300142e-01 4.353767750078814114e-01 -8.041446715023894409e-01
-2.329906672239303589e-01 -3.905028700828552246e-01 -1.937992095947265625e+00 4.046727520232704101e-02 4.026637031049246640e-01 4.353770289674304683e-01 -8.041457643515333986e-01
-2.329905182123184204e-01 -3.905027806758880615e-01 -1.937992215156555176e+00 4.046718314536206645e-02 4.026642508780953200e-01 4.353776511586668341e-01 -8.041466730956717823e-01
-2.329903542995452881e-01 -3.905026614665985107e-01 -1.937992334365844727e+00 4.046709108818768302e-02 4.026651668849582921e-01 4.353782733549869666e-01 -8.041477659626641294e-01
-2.329902052879333496e-01 -3.905025720596313477e-01 -1.937992453575134277e+00 4.046718314536206645e-02 4.026635144215379158e-01 4.353769147021093744e-01 -8.041453842966963528e-01
-2.329900413751602173e-01 -3.905024826526641846e-01 -1.937992572784423828e+00 4.046709108818768302e-02 4.026644304267255059e-01 4.353771686676378150e-01 -8.041462930461986680e-01
-2.329898923635482788e-01 -3.905023932456970215e-01 -1.937992691993713379e+00 4.046718314536206645e-02 4.026631461932591582e-01 4.353758100172732681e-01 -8.041437272694420546e-01
-2.329894751310348511e-01 -3.905021250247955322e-01 -1.937992930412292480e+00 4.046681491540801007e-02 4.026657055532794627e-01 4.353786670479335985e-01 -8.041490193444825740e-01
-2.329893112182617188e-01 -3.905020058155059814e-01 -1.937993049621582031e+00 4.046690697321065483e-02 4.026647895326881388e-01 4.353773083781287134e-01 -8.041464535315289153e-01
-2.329891771078109741e-01 -3.905019164085388184e-01 -1.937993168830871582e+00 4.046681491540801007e-02 4.026649690900205858e-01 4.353779305846747216e-01 -8.041475464179649313e-01
-2.329890429973602295e-01 -3.905018270015716553e-01 -1.937993168830871582e+00 4.046672285739594255e-02 4.026658851151880825e-01 4.353785527963048296e-01 -8.041486393135348631e-01
-2.329888939857482910e-01 -3.905017375946044922e-01 -1.937993288040161133e+00 4.046681491540801007e-02 4.026649690900205858e-01 4.353768258897864896e-01 -8.041462576072618829e-01
-2.329887747764587402e-01 -3.905016779899597168e-01 -1.937993407249450684e+00 4.046681491540801007e-02 4.026642326267617644e-01 4.353768258897864896e-01 -8.041457052598177668e-01
-2.329887002706527710e-01 -3.905018866062164307e-01 -1.937995672225952148e+00 4.049552679672321909e-02 4.026712747747372978e-01 4.353676658029845270e-01 -8.041457253415497108e-01
-2.329885810613632202e-01 -3.905017971992492676e-01 -1.937995791435241699e+00 4.049534281103117639e-02 4.026731042629700386e-01 4.353696438433152238e-01 -8.041491948942791623e-01
-2.329884320497512817e-01 -3.905017077922821045e-01 -1.937995910644531250e+00 4.049561878925577590e-02 4.026703600399718641e-01 4.353663088232171408e-01 -8.041435306210917844e-01
-2.329882830381393433e-01 -3.905016183853149414e-01 -1.937996029853820801e+00 4.049534281103117639e-02 4.026727362907500662e-01 4.353692758710952515e-01 -8.041488269220591345e-01
-2.329881489276885986e-01 -3.905015289783477783e-01 -1.937996149063110352e+00 4.049543480398169054e-02 4.026718215443525484e-01 4.353686548197797102e-01 -8.041466321762843483e-01
-2.329880148172378540e-01 -3.905014395713806152e-01 -1.937996268272399902e+00 4.049525081787169051e-02 4.026732830703256827e-01 4.353706328735909570e-01 -8.041501017493155601e-01
-2.329878509044647217e-01 -3.905013501644134521e-01 -1.937996387481689453e+00 4.049543480398169054e-02 4.026714535729684630e-01 4.353686548197797102e-01 -8.041462642049003184e-01
-2.329875975847244263e-01 -3.905012011528015137e-01 -1.937996506690979004e+00 4.049534281103117639e-02 4.026723683185300384e-01 4.353692758710952515e-01 -8.041479069915091760e-01
-2.329874038696289062e-01 -3.905010819435119629e-01 -1.937996625900268555e+00 4.049543480398169054e-02 4.026714535729684630e-01 4.353682868483956248e-01 -8.041455282621321476e-01
-2.329872548580169678e-01 -3.905009627342224121e-01 -1.937996745109558105e+00 4.049543480398169054e-02 4.026714535729684630e-01 4.353679188770115394e-01 -8.041453442764401327e-01
-2.330044806003570557e-01 -3.905283510684967041e-01 -1.938055872917175293e+00 4.049902236606226641e-02 4.026729451754635369e-01 4.353565797512329860e-01 -8.041499053213924109e-01
-2.330042570829391479e-01 -3.905282318592071533e-01 -1.938056111335754395e+00 4.049893038126086559e-02 4.026738597623561455e-01 4.353572006325031052e-01 -8.041513638391257768e-01
-2.330041229724884033e-01 -3.905281722545623779e-01 -1.938056230545043945e+00 4.049893038126086559e-02 4.026734918227327098e-01 4.353572006325031052e-01 -8.041511798693140589e-01
-2.330039739608764648e-01 -3.905280828475952148e-01 -1.938056468963623047e+00 4.049883839625054854e-02 4.026744064150214464e-01 4.353581894592986057e-01 -8.041528223676328579e-01
-2.330038398504257202e-01 -3.905280232429504395e-01 -1.938056588172912598e+00 4.049883839625054854e-02 4.026744064150214464e-01 4.353581894592986057e-01 -8.041524544271737573e-01
-2.330037057399749756e-01 -3.905279338359832764e-01 -1.938056707382202148e+00 4.049902236606226641e-02 4.026725772366758216e-01 4.353558438736575553e-01 -8.041486175356352684e-01
-2.330035716295242310e-01 -3.905278742313385010e-01 -1.938056945800781250e+00 4.049883839625054854e-02 4.026744064150214464e-01 4.353578215188394496e-01 -8.041520864867145457e-01
-2.330033779144287109e-01 -3.905277848243713379e-01 -1.938057065010070801e+00 4.049883839625054854e-02 4.026744064150214464e-01 4.353578215188394496e-01 -8.041517185462554451e-01
-2.330032587051391602e-01 -3.905276954174041748e-01 -1.938057303428649902e+00 4.049883839625054854e-02 4.026744064150214464e-01 4.353578215188394496e-01 -8.041515345760258393e-01
-2.330031245946884155e-01 -3.905276358127593994e-01 -1.938057422637939453e+00 4.049883839625054854e-02 4.026744064150214464e-01 4.353578215188394496e-01 -8.041513506057963445e-01
-2.330029904842376709e-01 -3.905275762081146240e-01 -1.938057541847229004e+00 4.049883839625054854e-02 4.026744064150214464e-01 4.353578215188394496e-01 -8.041511666355667387e-01
-2.330027520656585693e-01 -3.905274271965026855e-01 -1.938057780265808105e+00 4.049893038126086559e-02 4.026734918227327098e-01 4.353564647532562337e-01 -8.041489722315734445e-01
-2.330025881528854370e-01 -3.905273377895355225e-01 -1.938058018684387207e+00 4.049893038126086559e-02 4.026734918227327098e-01 4.353560968136327980e-01 -8.041486042919500088e-01
-2.330024242401123047e-01 -3.905272483825683594e-01 -1.938058137893676758e+00 4.049865442560313111e-02 4.026762356182949087e-01 4.353590633067113691e-01 -8.041537157752512988e-01
-2.330022901296615601e-01 -3.905271887779235840e-01 -1.938058257102966309e+00 4.049893038126086559e-02 4.026731238831092741e-01 4.353560968136327980e-01 -8.041482363523265731e-01
-2.330021560192108154e-01 -3.905271291732788086e-01 -1.938058495521545410e+00 4.049865442560313111e-02 4.026758676761643674e-01 4.353590633067113691e-01 -8.041533478331207574e-01
-2.330020070075988770e-01 -3.905270397663116455e-01 -1.938058614730834961e+00 4.049883839625054854e-02 4.026740384745622903e-01 4.353570856379211929e-01 -8.041495109035006195e-01
-2.330018877983093262e-01 -3.905269801616668701e-01 -1.938058733940124512e+00 4.049883839625054854e-02 4.026740384745622903e-01 4.353567176974620367e-01 -8.041493269332711247e-01
-2.330017238855361938e-01 -3.905268907546997070e-01 -1.938058972358703613e+00 4.049874641103130141e-02 4.026749530722473214e-01 4.353577065276525437e-01 -8.041507854646130493e-01
-2.330014705657958984e-01 -3.905267715454101562e-01 -1.938059210777282715e+00 4.049865442560313111e-02 4.026758676761643674e-01 4.353586953645808277e-01 -8.041522440067290223e-01
-2.330011427402496338e-01 -3.905265927314758301e-01 -1.938059568405151367e+00 4.049883839625054854e-02 4.026740384745622903e-01 4.353563497570029361e-01 -8.041482231118937118e-01
-2.330009639263153076e-01 -3.905265033245086670e-01 -1.938059806823730469e+00 4.049865442560313111e-02 4.026758676761643674e-01 4.353583274224502864e-01 -8.041515081224679395e-01
-2.329999953508377075e-01 -3.905259668827056885e-01 -1.938060879707336426e+00 4.049865442560313111e-02 4.026751317919032847e-01 4.353575915381892036e-01 -8.041498523828805034e-01
-2.329979091882705688e-01 -3.905243575572967529e-01 -1.938063025474548340e+00 4.050242565685292090e-02 4.026792117987595954e-01 4.353527419146159261e-01 -8.041502141491471134e-01
-2.329977303743362427e-01 -3.905242681503295898e-01 -1.938063263893127441e+00 4.050233367978073318e-02 4.026804941548958183e-01 4.353540984693319849e-01 -8.041527761176872069e-01
-2.329975962638854980e-01 -3.905241787433624268e-01 -1.938063383102416992e+00 4.050242565685292090e-02 4.026799476145015988e-01 4.353538456382289312e-01 -8.041515018266957027e-01
-2.329974621534347534e-01 -3.905240893363952637e-01 -1.938063502311706543e+00 4.050242565685292090e-02 4.026803155223726005e-01 4.353538456382289312e-01 -8.041524215963731237e-01
-2.329973131418228149e-01 -3.905240297317504883e-01 -1.938063621520996094e+00 4.050251763371623404e-02 4.026801368927373503e-01 4.353532249034838264e-01 -8.041511473132275656e-01
-2.329971194267272949e-01 -3.905239105224609375e-01 -1.938063859939575195e+00 4.050251763371623404e-02 4.026808727068084126e-01 4.353535928105193853e-01 -8.041520670808164351e-01
-2.329969853162765503e-01 -3.905238211154937744e-01 -1.938063979148864746e+00 4.050270158681626431e-02 4.026794117367657466e-01 4.353519834491864637e-01 -8.041489666821041160e-01
-2.329968512058258057e-01 -3.905237317085266113e-01 -1.938064217567443848e+00 4.050260961037067953e-02 4.026806940783900779e-01 4.353533399862031250e-01 -8.041517125710166969e-01
-2.329966574907302856e-01 -3.905236423015594482e-01 -1.938064336776733398e+00 4.050288553908082401e-02 4.026786865956873407e-01 4.353511099188395739e-01 -8.041471539910693966e-01
-2.329965233802795410e-01 -3.905235528945922852e-01 -1.938064575195312500e+00 4.050279356305297451e-02 4.026799689256877479e-01 4.353520985386923337e-01 -8.041495319505717054e-01
-2.329963594675064087e-01 -3.905234634876251221e-01 -1.938064694404602051e+00 4.050270158681626431e-02 4.026812512635886687e-01 4.353534550706447681e-01 -8.041522778303853425e-01
-2.329962402582168579e-01 -3.905234038829803467e-01 -1.938064813613891602e+00 4.050270158681626431e-02 4.026816191689532864e-01 4.353541908813739481e-01 -8.041528296884322691e-01
-2.329961061477661133e-01 -3.905233144760131836e-01 -1.938064932823181152e+00 4.050279356305297451e-02 4.026814405438042255e-01 4.353532022522797473e-01 -8.041515554254818898e-01
-2.329959720373153687e-01 -3.905232250690460205e-01 -1.938065171241760254e+00 4.050297751489980586e-02 4.026799795935949167e-01 4.353515929171546395e-01 -8.041486390265252249e-01
-2.329958379268646240e-01 -3.905231654644012451e-01 -1.938065290451049805e+00 4.050306949050992700e-02 4.026794330775927411e-01 4.353509722094527912e-01 -8.041475487452238724e-01
-2.329957187175750732e-01 -3.905230760574340820e-01 -1.938065409660339355e+00 4.050306949050992700e-02 4.026794330775927411e-01 4.353513401114755821e-01 -8.041481005982579200e-01
-2.329955846071243286e-01 -3.905230164527893066e-01 -1.938065528869628906e+00 4.050297751489980586e-02 4.026810833021695624e-01 4.353526966257292852e-01 -8.041504785408163380e-01
-2.329954504966735840e-01 -3.905229270458221436e-01 -1.938065648078918457e+00 4.050316146591118743e-02 4.026796223685238374e-01 4.353510873091895883e-01 -8.041475621765827864e-01
-2.329953163862228394e-01 -3.905228674411773682e-01 -1.938065886497497559e+00 4.050306949050992700e-02 4.026809046856838492e-01 4.353520759155211084e-01 -8.041499401083718190e-01
-2.329950034618377686e-01 -3.905226886272430420e-01 -1.938066124916076660e+00 4.050306949050992700e-02 4.026820083917521109e-01 4.353528117195666347e-01 -8.041515956674742949e-01
-2.329947948455810547e-01 -3.905225396156311035e-01 -1.938066363334655762e+00 4.050325344110359410e-02 4.026809153617272874e-01 4.353515703110003576e-01 -8.041488632632589617e-01
-2.329946607351303101e-01 -3.905224800109863281e-01 -1.938066482543945312e+00 4.050325344110359410e-02 4.026809153617272874e-01 4.353519382113522629e-01 -8.041495990639627722e-01
-2.329944223165512085e-01 -3.905223309993743896e-01 -1.938066840171813965e+00 4.050316146591118743e-02 4.026829334792098036e-01 4.353536626175008584e-01 -8.041525288426116802e-01
-2.329942733049392700e-01 -3.905222415924072266e-01 -1.938066959381103516e+00 4.050325344110359410e-02 4.026823869631348529e-01 4.353530419124079787e-01 -8.041514385657222430e-01
-2.329941391944885254e-01 -3.905221819877624512e-01 -1.938067078590393066e+00 4.050343739086182532e-02 4.026809260459796036e-01 4.353514326187328809e-01 -8.041483382925354029e-01
-2.329939901828765869e-01 -3.905220925807952881e-01 -1.938067317008972168e+00 4.050334541608714006e-02 4.026822083511349404e-01 4.353527891118954551e-01 -8.041510840969638974e-01
-2.329937666654586792e-01 -3.905219733715057373e-01 -1.938067555427551270e+00 4.050334541608714006e-02 4.026829441501679208e-01 4.353531570114119176e-01 -8.041520038457551367e-01
-2.329933494329452515e-01 -3.905217349529266357e-01 -1.938067913055419922e+00 4.050352936542765681e-02 4.026825869314892836e-01 4.353519156232039111e-01 -8.041505591256397079e-01
-2.329927831888198853e-01 -3.905214071273803711e-01 -1.938068509101867676e+00 4.050362133978464146e-02 4.026835120175119576e-01 4.353527665247363676e-01 -8.041514923132685455e-01
