repeatability steamvr; 20211015-225704; x y z w i j k;  frequency = 150 duration = 2 sys.args = ['.\\repeatability.py']
8.393991738557815552e-02 -4.335175752639770508e-01 -1.734436988830566406e+00 5.244820016224324144e-01 4.114176245178466362e-01 -4.335638343171012710e-01 6.063633326567920978e-01
8.393980562686920166e-02 -4.335177838802337646e-01 -1.734437108039855957e+00 5.244825023695312005e-01 4.114177502227264194e-01 -4.335635571029076707e-01 6.063630094348959609e-01
8.393976837396621704e-02 -4.335178732872009277e-01 -1.734437108039855957e+00 5.244826888177969160e-01 4.114178063974069932e-01 -4.335634828818547004e-01 6.063628933180658098e-01
8.393974602222442627e-02 -4.335179328918457031e-01 -1.734437108039855957e+00 5.244828131166038299e-01 4.114178189874422853e-01 -4.335634138685451888e-01 6.063627922309737794e-01
8.393971621990203857e-02 -4.335179924964904785e-01 -1.734437108039855957e+00 5.244829533966506308e-01 4.114178616580960735e-01 -4.335633369714809726e-01 6.063627010789208738e-01
8.393968641757965088e-02 -4.335180521011352539e-01 -1.734437108039855957e+00 5.244830759196987824e-01 4.114179005008083423e-01 -4.335632676504733718e-01 6.063626304560445490e-01
8.393966406583786011e-02 -4.335181117057800293e-01 -1.734437108039855957e+00 5.244832002184139919e-01 4.114179379506240908e-01 -4.335631986373416069e-01 6.063625293691954354e-01
8.393962681293487549e-02 -4.335181713104248047e-01 -1.734437108039855957e+00 5.244833760122609156e-01 4.114179634174653377e-01 -4.335631296725783734e-01 6.063624255704098687e-01
8.393959701061248779e-02 -4.335182309150695801e-01 -1.734437108039855957e+00 5.244834967595156661e-01 4.114179965503204639e-01 -4.335630618196305575e-01 6.063623427951153610e-01
8.393957465887069702e-02 -4.335182905197143555e-01 -1.734437108039855957e+00 5.244836175067425499e-01 4.114180332345708790e-01 -4.335629957424313452e-01 6.063622458143367311e-01
8.393955230712890625e-02 -4.335183203220367432e-01 -1.734437108039855957e+00 5.244837347025538277e-01 4.114180727046229946e-01 -4.335629308253358682e-01 6.063621813505409852e-01
8.393952250480651855e-02 -4.335183799266815186e-01 -1.734437108039855957e+00 5.244838536740323853e-01 4.114180788192969285e-01 -4.335628644404198595e-01 6.063621148339036759e-01
8.393950015306472778e-02 -4.335184395313262939e-01 -1.734437108039855957e+00 5.244839726454840756e-01 4.114181133450788841e-01 -4.335627980555561423e-01 6.063620199062379479e-01
8.393947780132293701e-02 -4.335184991359710693e-01 -1.734437108039855957e+00 5.244840916169086764e-01 4.114181478708664463e-01 -4.335627600818282024e-01 6.063619533897297575e-01
8.393944054841995239e-02 -4.335185587406158447e-01 -1.734437108039855957e+00 5.244842603076883547e-01 4.114182002177178554e-01 -4.335626668022833363e-01 6.063618435977083942e-01
8.393941074609756470e-02 -4.335186183452606201e-01 -1.734437108039855957e+00 5.244843881575063094e-01 4.114182100221233651e-01 -4.335625948539471031e-01 6.063617384058079818e-01
8.393938094377517700e-02 -4.335186779499053955e-01 -1.734437108039855957e+00 5.244845248857493702e-01 4.114182554786645074e-01 -4.335625191177224780e-01 6.063616655661153709e-01
8.393935859203338623e-02 -4.335187375545501709e-01 -1.734437108039855957e+00 5.244846438570487379e-01 4.114182935558633458e-01 -4.335624545088387904e-01 6.063615990499024999e-01
8.393933624029159546e-02 -4.335187971591949463e-01 -1.734437108039855957e+00 5.244847663797019832e-01 4.114183288472784694e-01 -4.335623851885872515e-01 6.063615000169210179e-01
8.393929153680801392e-02 -4.335188865661621094e-01 -1.734437108039855957e+00 5.244849794625089379e-01 4.114183605773692465e-01 -4.335622942780592015e-01 6.063613531087171937e-01
8.393924683332443237e-02 -4.335189759731292725e-01 -1.734437108039855957e+00 5.244851996479852341e-01 4.114184329038479415e-01 -4.335621744122742371e-01 6.063612264002075092e-01
8.393920958042144775e-02 -4.335190355777740479e-01 -1.734437108039855957e+00 5.244853736654736531e-01 4.114184562124661437e-01 -4.335620767298291600e-01 6.063610820393938727e-01
8.393918722867965698e-02 -4.335190951824188232e-01 -1.734437108039855957e+00 5.244854713283245706e-01 4.114184825933875356e-01 -4.335620208571805412e-01 6.063610401582547604e-01
8.393916487693786621e-02 -4.335191249847412109e-01 -1.734437108039855957e+00 5.244855796452834173e-01 4.114185148224739352e-01 -4.335619899154821710e-01 6.063609717543503308e-01
8.393914252519607544e-02 -4.335191845893859863e-01 -1.734437108039855957e+00 5.244856773080959211e-01 4.114185483061534865e-01 -4.335619358185908156e-01 6.063609014622953763e-01
8.391971141099929810e-02 -4.335335195064544678e-01 -1.734394550323486328e+00 5.244895429651786900e-01 4.114103807688431758e-01 -4.335685029843110994e-01 6.063584211420538495e-01
8.391968160867691040e-02 -4.335335791110992432e-01 -1.734394431114196777e+00 5.244895678246175308e-01 4.114103577177148363e-01 -4.335684771072713661e-01 6.063584208130312625e-01
8.391965925693511963e-02 -4.335336089134216309e-01 -1.734394431114196777e+00 5.244895944597293136e-01 4.114103616845336542e-01 -4.335684231272658451e-01 6.063584042257742501e-01
8.391962945461273193e-02 -4.335336387157440186e-01 -1.734394431114196777e+00 5.244896122164697250e-01 4.114103726155586283e-01 -4.335684031216653356e-01 6.063584121081274647e-01
8.391959965229034424e-02 -4.335336983203887939e-01 -1.734394431114196777e+00 5.244896370759053461e-01 4.114103779752190659e-01 -4.335683790203102572e-01 6.063584117791090966e-01
8.391956984996795654e-02 -4.335337281227111816e-01 -1.734394311904907227e+00 5.244896637110135762e-01 4.114103535312576554e-01 -4.335683516754273992e-01 6.063584093972496092e-01
8.391953259706497192e-02 -4.335337579250335693e-01 -1.734394311904907227e+00 5.244896921217941932e-01 4.114103596565866217e-01 -4.335683228626913688e-01 6.063584049625493355e-01
8.391948789358139038e-02 -4.335338473320007324e-01 -1.734394311904907227e+00 5.244897311866151268e-01 4.114103716302619507e-01 -4.335682550563678683e-01 6.063584024161873254e-01
8.391945809125900269e-02 -4.335338771343231201e-01 -1.734394311904907227e+00 5.244897507190244834e-01 4.114103563090172888e-01 -4.335682335829256218e-01 6.063584082457019742e-01
8.391942083835601807e-02 -4.335339367389678955e-01 -1.734394192695617676e+00 5.244897773541269403e-01 4.114103638271889851e-01 -4.335682080137343020e-01 6.063584058638497032e-01
8.391939848661422729e-02 -4.335339665412902832e-01 -1.734394192695617676e+00 5.244898022135546789e-01 4.114103656355076466e-01 -4.335681821367292632e-01 6.063583913294539052e-01
8.391936868429183960e-02 -4.335339963436126709e-01 -1.734394192695617676e+00 5.244898199702880959e-01 4.114103481557606634e-01 -4.335681639068239002e-01 6.063584276225856273e-01
8.390730619430541992e-02 -4.335140883922576904e-01 -1.734389781951904297e+00 5.244729579054845381e-01 4.114194555072577253e-01 -4.335500407494953246e-01 6.063797975170112098e-01
8.390726149082183838e-02 -4.335140883922576904e-01 -1.734389781951904297e+00 5.244729827657095278e-01 4.114194608660386998e-01 -4.335499864601774500e-01 6.063797971860561686e-01
8.390723168849945068e-02 -4.335141181945800781e-01 -1.734389781951904297e+00 5.244729969715518081e-01 4.114194390679756785e-01 -4.335499711656095601e-01 6.063797949675335808e-01
8.390720188617706299e-02 -4.335141479969024658e-01 -1.734389781951904297e+00 5.244730111773937553e-01 4.114194456815976619e-01 -4.335499576467729543e-01 6.063797927490115480e-01
8.390717208385467529e-02 -4.335141479969024658e-01 -1.734389781951904297e+00 5.244730271589654880e-01 4.114194509022595647e-01 -4.335499408843191405e-01 6.063798026832860621e-01
8.390714228153228760e-02 -4.335141777992248535e-01 -1.734389781951904297e+00 5.244730484677270210e-01 4.114194483925817658e-01 -4.335499197182030029e-01 6.063797922525842043e-01
8.390711247920989990e-02 -4.335141777992248535e-01 -1.734389662742614746e+00 5.244730626735676360e-01 4.114194550062038602e-01 -4.335499061993702274e-01 6.063797900340640590e-01
8.390708267688751221e-02 -4.335142076015472412e-01 -1.734389662742614746e+00 5.244730768794076958e-01 4.114194616198260102e-01 -4.335498909048086102e-01 6.063797878155445797e-01
8.390706032514572144e-02 -4.335142374038696289e-01 -1.734389662742614746e+00 5.244730928609774301e-01 4.114194348773494436e-01 -4.335498741423605695e-01 6.063797835439808104e-01
8.390703052282333374e-02 -4.335142374038696289e-01 -1.734389662742614746e+00 5.244731070668168238e-01 4.114194414909723152e-01 -4.335498322118528924e-01 6.063797813254624414e-01
8.390700072050094604e-02 -4.335142672061920166e-01 -1.734389662742614746e+00 5.244731212726557734e-01 4.114194445531354494e-01 -4.335498169172954941e-01 6.063797933127834661e-01
8.390697091817855835e-02 -4.335142672061920166e-01 -1.734389662742614746e+00 5.244731354784943900e-01 4.114194511667583209e-01 -4.335498016227392615e-01 6.063797910942658742e-01
8.390694111585617065e-02 -4.335142970085144043e-01 -1.734389662742614746e+00 5.244731496843325624e-01 4.114194577803811370e-01 -4.335497863281841946e-01 6.063797888757488375e-01
8.390691131353378296e-02 -4.335142970085144043e-01 -1.734389662742614746e+00 5.244731727688187739e-01 4.114194538777483645e-01 -4.335497654699264070e-01 6.063797763920116823e-01
8.390688896179199219e-02 -4.335143268108367920e-01 -1.734389662742614746e+00 5.244731869746559472e-01 4.114194320796974447e-01 -4.335497501753742267e-01 6.063798025851703244e-01
8.390685915946960449e-02 -4.335143566131591797e-01 -1.734389543533325195e+00 5.244732011804926763e-01 4.114194386933213154e-01 -4.335497348808232121e-01 6.063798003666549530e-01
8.390682935714721680e-02 -4.335143566131591797e-01 -1.734389543533325195e+00 5.244732153863291835e-01 4.114194417554858929e-01 -4.335497213620028156e-01 6.063798123539760887e-01
8.390678465366363525e-02 -4.335143864154815674e-01 -1.734389543533325195e+00 5.244732349193536036e-01 4.114194512931509395e-01 -4.335496998880661312e-01 6.063798039763301784e-01
8.390668034553527832e-02 -4.335144460201263428e-01 -1.734389543533325195e+00 5.244732970698809948e-01 4.114194380541845164e-01 -4.335496094460181138e-01 6.063798031489827656e-01
8.390659838914871216e-02 -4.335145056247711182e-01 -1.734389424324035645e+00 5.244733379116521821e-01 4.114194486336417156e-01 -4.335495668060110330e-01 6.063797985464925988e-01
8.390655368566513062e-02 -4.335145354270935059e-01 -1.734389424324035645e+00 5.244733645475881945e-01 4.114194277392687060e-01 -4.335495394605494712e-01 6.063797961625158051e-01
8.390628546476364136e-02 -4.335146844387054443e-01 -1.734389305114746094e+00 5.244735030544336318e-01 4.114194433895791425e-01 -4.335493699179923111e-01 6.063798207010195895e-01
8.390624076128005981e-02 -4.335147142410278320e-01 -1.734389305114746094e+00 5.244735296903612065e-01 4.114194509068750394e-01 -4.335493141609009227e-01 6.063798183170522327e-01
8.390612900257110596e-02 -4.335147738456726074e-01 -1.734389305114746094e+00 5.244735865136689323e-01 4.114194382953577089e-01 -4.335492565342781157e-01 6.063798094430407071e-01
8.390609174966812134e-02 -4.335148036479949951e-01 -1.734389185905456543e+00 5.244736042709513546e-01 4.114194456745274286e-01 -4.335492365282678229e-01 6.063798173242832545e-01
8.390604704618453979e-02 -4.335148334503173828e-01 -1.734389185905456543e+00 5.244736291311457022e-01 4.114194226216761896e-01 -4.335492124264584413e-01 6.063798027875380026e-01
8.390598744153976440e-02 -4.335148632526397705e-01 -1.734389185905456543e+00 5.244736593185229667e-01 4.114194344559753413e-01 -4.335491803695503132e-01 6.063798105033229024e-01
8.390595018863677979e-02 -4.335148930549621582e-01 -1.734389185905456543e+00 5.244736841787147608e-01 4.114194362633202817e-01 -4.335491278561011685e-01 6.063797959665825354e-01
8.390590548515319824e-02 -4.335149228572845459e-01 -1.734389185905456543e+00 5.244737072631774355e-01 4.114194430150779902e-01 -4.335491052221852604e-01 6.063797976887077557e-01
8.390588313341140747e-02 -4.335149228572845459e-01 -1.734389185905456543e+00 5.244737232447279629e-01 4.114194162726492188e-01 -4.335490884597971717e-01 6.063797934171710757e-01
8.390585333108901978e-02 -4.335149526596069336e-01 -1.734389066696166992e+00 5.244737374505501482e-01 4.114194228862780855e-01 -4.335490731652917873e-01 6.063797911986750222e-01
8.390580862760543823e-02 -4.335149824619293213e-01 -1.734389066696166992e+00 5.244737605350106024e-01 4.114194296380375149e-01 -4.335490505313823739e-01 6.063798213324457231e-01
8.390576392412185669e-02 -4.335149824619293213e-01 -1.734389066696166992e+00 5.244737782922870295e-01 4.114194405686650291e-01 -4.335490305253906773e-01 6.063798292136921564e-01
8.390573412179946899e-02 -4.335150122642517090e-01 -1.734389066696166992e+00 5.244737942738354475e-01 4.114194422378826266e-01 -4.335490137630088614e-01 6.063798249421574749e-01
8.390570431947708130e-02 -4.335150420665740967e-01 -1.734389066696166992e+00 5.244738084796557454e-01 4.114194204398711197e-01 -4.335489718325963304e-01 6.063798227236630867e-01
8.390567451715469360e-02 -4.335150420665740967e-01 -1.734389066696166992e+00 5.244738315641129800e-01 4.114194200887224540e-01 -4.335489491986971311e-01 6.063798102399734491e-01
8.390564471483230591e-02 -4.335150718688964844e-01 -1.734389066696166992e+00 5.244738457699322787e-01 4.114194267023522089e-01 -4.335489339042010171e-01 6.063798222272999139e-01
8.390561491250991821e-02 -4.335150718688964844e-01 -1.734389066696166992e+00 5.244738617514785872e-01 4.114194319230263241e-01 -4.335489171418260845e-01 6.063798179557684520e-01
8.390558511018753052e-02 -4.335151016712188721e-01 -1.734388947486877441e+00 5.244738759572971087e-01 4.114194385366559681e-01 -4.335489018473324130e-01 6.063798157372765063e-01
8.390554785728454590e-02 -4.335151314735412598e-01 -1.734388947486877441e+00 5.244739008174785777e-01 4.114194119323727472e-01 -4.335488777455620557e-01 6.063798154063714252e-01
8.390551060438156128e-02 -4.335151314735412598e-01 -1.734388947486877441e+00 5.244739167990232209e-01 4.114194171530480837e-01 -4.335488609831919526e-01 6.063798111348425168e-01
8.390545845031738281e-02 -4.335151910781860352e-01 -1.734388947486877441e+00 5.244739434349298124e-01 4.114194282218099352e-01 -4.335488052261877168e-01 6.063798087509018053e-01
8.390542864799499512e-02 -4.335151910781860352e-01 -1.734388947486877441e+00 5.244739576407461135e-01 4.114194348354403563e-01 -4.335487917074283271e-01 6.063798065324130793e-01
8.390540629625320435e-02 -4.335152208805084229e-01 -1.734388947486877441e+00 5.244739736222889803e-01 4.114194365046618951e-01 -4.335487749450641082e-01 6.063798164667025814e-01
8.390537649393081665e-02 -4.335152208805084229e-01 -1.734388947486877441e+00 5.244739878281045042e-01 4.114194147066617679e-01 -4.335487596505800401e-01 6.063798142482146325e-01
8.390534669160842896e-02 -4.335152506828308105e-01 -1.734388828277587891e+00 5.244740020339195841e-01 4.114194177688392240e-01 -4.335487443560971377e-01 6.063798120297273497e-01
8.390531688928604126e-02 -4.335152506828308105e-01 -1.734388828277587891e+00 5.244740215669146943e-01 4.114194202036066672e-01 -4.335487264337068991e-01 6.063798036521278467e-01
8.390528708696365356e-02 -4.335152804851531982e-01 -1.734388828277587891e+00 5.244740375484556738e-01 4.114194254242834470e-01 -4.335487096713482869e-01 6.063798277922324287e-01
8.390520513057708740e-02 -4.335153400897979736e-01 -1.734388828277587891e+00 5.244740801658958063e-01 4.114194133020984134e-01 -4.335486655636413000e-01 6.063798353425891019e-01
8.390516787767410278e-02 -4.335153400897979736e-01 -1.734388828277587891e+00 5.244740979231614642e-01 4.114194206812751831e-01 -4.335486189217856445e-01 6.063798290180304473e-01
8.390467613935470581e-02 -4.335153996944427490e-01 -1.734389424324035645e+00 5.244762145849245494e-01 4.114233289459031107e-01 -4.335478511950724978e-01 6.063759044141631138e-01
8.390463888645172119e-02 -4.335154294967651367e-01 -1.734389424324035645e+00 5.244762447721530441e-01 4.114233620886669773e-01 -4.335478209142429873e-01 6.063758695130437859e-01
8.390459418296813965e-02 -4.335154592990875244e-01 -1.734389424324035645e+00 5.244762873894137645e-01 4.114233996864893883e-01 -4.335477785826612473e-01 6.063758202408857656e-01
8.390454202890396118e-02 -4.335154891014099121e-01 -1.734389424324035645e+00 5.244763317823900595e-01 4.114234394427903618e-01 -4.335477631947307064e-01 6.063757973272374535e-01
8.390451222658157349e-02 -4.335154891014099121e-01 -1.734389424324035645e+00 5.244763655210494813e-01 4.114234662481963678e-01 -4.335477299781947402e-01 6.063757583201289103e-01
8.390447497367858887e-02 -4.335155189037322998e-01 -1.734389424324035645e+00 5.244763974839879994e-01 4.114234944465564037e-01 -4.335477000052452290e-01 6.063757213660330159e-01
8.390444517135620117e-02 -4.335155189037322998e-01 -1.734389424324035645e+00 5.244764223440500084e-01 4.114235282167373331e-01 -4.335476741280278046e-01 6.063756926239630696e-01
8.390440791845321655e-02 -4.335155487060546875e-01 -1.734389424324035645e+00 5.244764543069850848e-01 4.114235564150932056e-01 -4.335476423793692136e-01 6.063756556698791655e-01
8.390437066555023193e-02 -4.335155785083770752e-01 -1.734389424324035645e+00 5.244764862699181629e-01 4.114235810620103240e-01 -4.335476408179298469e-01 6.063756471272973014e-01
8.390434086322784424e-02 -4.335155785083770752e-01 -1.734389424324035645e+00 5.244765182328493536e-01 4.114236092603625883e-01 -4.335476090692803597e-01 6.063756243789719669e-01
8.390430361032485962e-02 -4.335156083106994629e-01 -1.734389424324035645e+00 5.244765501957785458e-01 4.114236374587130207e-01 -4.335475773206364236e-01 6.063755874249057154e-01
8.390425145626068115e-02 -4.335156381130218506e-01 -1.734389424324035645e+00 5.244765999158867986e-01 4.114236765875616819e-01 -4.335475291176797974e-01 6.063755299408162269e-01
8.390420675277709961e-02 -4.335156381130218506e-01 -1.734389424324035645e+00 5.244766389816828411e-01 4.114237205227019301e-01 -4.335475181333803829e-01 6.063755131862442749e-01
8.390416949987411499e-02 -4.335156679153442383e-01 -1.734389424324035645e+00 5.244766709446047059e-01 4.114237522724804585e-01 -4.335474881604731712e-01 6.063754762322017822e-01
8.390412479639053345e-02 -4.335156977176666260e-01 -1.734389424324035645e+00 5.244767171132662664e-01 4.114237870843575617e-01 -4.335474428932634128e-01 6.063754228541523572e-01
8.390408754348754883e-02 -4.335156977176666260e-01 -1.734389424324035645e+00 5.244767490761833573e-01 4.114238152826959483e-01 -4.335474111446516732e-01 6.063753859001264068e-01
8.390405774116516113e-02 -4.335157275199890137e-01 -1.734389424324035645e+00 5.244767810390984497e-01 4.114238718925117277e-01 -4.335474095832421160e-01 6.063753773575866202e-01
8.390402048826217651e-02 -4.335157573223114014e-01 -1.734389305114746094e+00 5.244768058991422510e-01 4.114239021112295336e-01 -4.335473837060723756e-01 6.063753486155750716e-01
8.390399068593978882e-02 -4.335157573223114014e-01 -1.734389305114746094e+00 5.244768378620539018e-01 4.114239303095604261e-01 -4.335473519574740697e-01 6.063753116615662186e-01
8.390395343303680420e-02 -4.335157871246337891e-01 -1.734389305114746094e+00 5.244768698249636651e-01 4.114239585078893202e-01 -4.335473219845983883e-01 6.063752747075641381e-01
8.390389382839202881e-02 -4.335158169269561768e-01 -1.734389305114746094e+00 5.244769266479095693e-01 4.114240098220584008e-01 -4.335472945460458472e-01 6.063752516287840288e-01
8.390384912490844727e-02 -4.335158467292785645e-01 -1.734389305114746094e+00 5.244769657136811869e-01 4.114240537571656198e-01 -4.335472551503216643e-01 6.063752064628021854e-01
8.390381187200546265e-02 -4.335158467292785645e-01 -1.734389305114746094e+00 5.244770012280166593e-01 4.114240791695771282e-01 -4.335472204660354989e-01 6.063751654028273208e-01
8.390376716852188110e-02 -4.335158765316009521e-01 -1.734389305114746094e+00 5.244770438452158734e-01 4.114241203187684048e-01 -4.335471781346144637e-01 6.063751161308686966e-01
